Results for node = 1
    time [s]    temperature [K]    growth [/]    nucleation [/]   Css [wt.ppm]    Cp [wt.ppm]   
   0.0000E+00      2.9300E+02      0.0000E+00      0.0000E+00      4.8676E-02      1.9995E+02   
   8.5000E+00      2.9314E+02      0.0000E+00      0.0000E+00      4.8676E-02      1.9995E+02   
   1.7000E+01      2.9328E+02      0.0000E+00      0.0000E+00      4.8676E-02      1.9995E+02   
   2.5500E+01      2.9342E+02      0.0000E+00      0.0000E+00      4.8676E-02      1.9995E+02   
   3.4000E+01      2.9357E+02      0.0000E+00      0.0000E+00      4.8676E-02      1.9995E+02   
   4.2500E+01      2.9371E+02      0.0000E+00      0.0000E+00      4.8677E-02      1.9995E+02   
   5.1000E+01      2.9385E+02      0.0000E+00      0.0000E+00      4.8677E-02      1.9995E+02   
   5.9500E+01      2.9399E+02      0.0000E+00      0.0000E+00      4.8677E-02      1.9995E+02   
   6.8000E+01      2.9413E+02      0.0000E+00      0.0000E+00      4.8677E-02      1.9995E+02   
   7.6500E+01      2.9427E+02      0.0000E+00      0.0000E+00      4.8678E-02      1.9995E+02   
   8.5000E+01      2.9442E+02      0.0000E+00      0.0000E+00      4.8678E-02      1.9995E+02   
   9.3500E+01      2.9456E+02      0.0000E+00      0.0000E+00      4.8679E-02      1.9995E+02   
   1.0200E+02      2.9470E+02      0.0000E+00      0.0000E+00      4.8679E-02      1.9995E+02   
   1.1050E+02      2.9484E+02      0.0000E+00      0.0000E+00      4.8680E-02      1.9995E+02   
   1.1900E+02      2.9498E+02      0.0000E+00      0.0000E+00      4.8680E-02      1.9995E+02   
   1.2750E+02      2.9512E+02      0.0000E+00      0.0000E+00      4.8681E-02      1.9995E+02   
   1.3600E+02      2.9527E+02      0.0000E+00      0.0000E+00      4.8682E-02      1.9995E+02   
   1.4450E+02      2.9541E+02      0.0000E+00      0.0000E+00      4.8683E-02      1.9995E+02   
   1.5300E+02      2.9555E+02      0.0000E+00      0.0000E+00      4.8683E-02      1.9995E+02   
   1.6150E+02      2.9569E+02      0.0000E+00      0.0000E+00      4.8684E-02      1.9995E+02   
   1.7000E+02      2.9583E+02      0.0000E+00      0.0000E+00      4.8685E-02      1.9995E+02   
   1.7600E+02      2.9593E+02      0.0000E+00      0.0000E+00      4.8686E-02      1.9995E+02   
   1.8450E+02      2.9607E+02      0.0000E+00      0.0000E+00      4.8687E-02      1.9995E+02   
   1.9300E+02      2.9622E+02      0.0000E+00      0.0000E+00      4.8688E-02      1.9995E+02   
   2.0150E+02      2.9636E+02      0.0000E+00      0.0000E+00      4.8689E-02      1.9995E+02   
   2.1000E+02      2.9650E+02      0.0000E+00      0.0000E+00      4.8691E-02      1.9995E+02   
   2.1850E+02      2.9664E+02      0.0000E+00      0.0000E+00      4.8692E-02      1.9995E+02   
   2.2700E+02      2.9678E+02      0.0000E+00      0.0000E+00      4.8694E-02      1.9995E+02   
   2.3550E+02      2.9692E+02      0.0000E+00      0.0000E+00      4.8695E-02      1.9995E+02   
   2.4400E+02      2.9707E+02      0.0000E+00      0.0000E+00      4.8697E-02      1.9995E+02   
   2.5250E+02      2.9721E+02      0.0000E+00      0.0000E+00      4.8698E-02      1.9995E+02   
   2.6100E+02      2.9735E+02      0.0000E+00      0.0000E+00      4.8700E-02      1.9995E+02   
   2.6950E+02      2.9749E+02      0.0000E+00      0.0000E+00      4.8702E-02      1.9995E+02   
   2.7800E+02      2.9763E+02      0.0000E+00      0.0000E+00      4.8703E-02      1.9995E+02   
   2.8650E+02      2.9777E+02      0.0000E+00      0.0000E+00      4.8705E-02      1.9995E+02   
   2.9500E+02      2.9792E+02      0.0000E+00      0.0000E+00      4.8707E-02      1.9995E+02   
   3.0350E+02      2.9806E+02      0.0000E+00      0.0000E+00      4.8710E-02      1.9995E+02   
   3.1200E+02      2.9820E+02      0.0000E+00      0.0000E+00      4.8712E-02      1.9995E+02   
   3.2050E+02      2.9834E+02      0.0000E+00      0.0000E+00      4.8714E-02      1.9995E+02   
   3.2900E+02      2.9848E+02      0.0000E+00      0.0000E+00      4.8716E-02      1.9995E+02   
   3.3750E+02      2.9862E+02      0.0000E+00      0.0000E+00      4.8719E-02      1.9995E+02   
   3.4600E+02      2.9877E+02      0.0000E+00      0.0000E+00      4.8721E-02      1.9995E+02   
   3.5450E+02      2.9891E+02      0.0000E+00      0.0000E+00      4.8724E-02      1.9995E+02   
   3.6300E+02      2.9905E+02      0.0000E+00      0.0000E+00      4.8727E-02      1.9995E+02   
   3.7150E+02      2.9919E+02      0.0000E+00      0.0000E+00      4.8729E-02      1.9995E+02   
   3.8000E+02      2.9933E+02      0.0000E+00      0.0000E+00      4.8732E-02      1.9995E+02   
   3.8850E+02      2.9947E+02      0.0000E+00      0.0000E+00      4.8735E-02      1.9995E+02   
   3.9700E+02      2.9962E+02      0.0000E+00      0.0000E+00      4.8739E-02      1.9995E+02   
   4.0550E+02      2.9976E+02      0.0000E+00      0.0000E+00      4.8742E-02      1.9995E+02   
   4.1400E+02      2.9990E+02      0.0000E+00      0.0000E+00      4.8745E-02      1.9995E+02   
   4.2250E+02      3.0004E+02      0.0000E+00      0.0000E+00      4.8749E-02      1.9995E+02   
   4.3100E+02      3.0018E+02      0.0000E+00      0.0000E+00      4.8752E-02      1.9995E+02   
   4.3950E+02      3.0032E+02      0.0000E+00      0.0000E+00      4.8756E-02      1.9995E+02   
   4.4800E+02      3.0047E+02      0.0000E+00      0.0000E+00      4.8760E-02      1.9995E+02   
   4.5650E+02      3.0061E+02      0.0000E+00      0.0000E+00      4.8763E-02      1.9995E+02   
   4.6500E+02      3.0075E+02      0.0000E+00      0.0000E+00      4.8767E-02      1.9995E+02   
   4.7350E+02      3.0089E+02      0.0000E+00      0.0000E+00      4.8772E-02      1.9995E+02   
   4.8200E+02      3.0103E+02      0.0000E+00      0.0000E+00      4.8776E-02      1.9995E+02   
   4.9050E+02      3.0117E+02      0.0000E+00      0.0000E+00      4.8780E-02      1.9995E+02   
   4.9900E+02      3.0132E+02      0.0000E+00      0.0000E+00      4.8785E-02      1.9995E+02   
   5.0750E+02      3.0146E+02      0.0000E+00      0.0000E+00      4.8789E-02      1.9995E+02   
   5.1600E+02      3.0160E+02      0.0000E+00      0.0000E+00      4.8794E-02      1.9995E+02   
   5.2450E+02      3.0174E+02      0.0000E+00      0.0000E+00      4.8799E-02      1.9995E+02   
   5.3300E+02      3.0188E+02      0.0000E+00      0.0000E+00      4.8804E-02      1.9995E+02   
   5.4150E+02      3.0202E+02      0.0000E+00      0.0000E+00      4.8809E-02      1.9995E+02   
   5.5000E+02      3.0217E+02      0.0000E+00      0.0000E+00      4.8815E-02      1.9995E+02   
   5.5850E+02      3.0231E+02      0.0000E+00      0.0000E+00      4.8820E-02      1.9995E+02   
   5.6700E+02      3.0245E+02      0.0000E+00      0.0000E+00      4.8826E-02      1.9995E+02   
   5.7550E+02      3.0259E+02      0.0000E+00      0.0000E+00      4.8831E-02      1.9995E+02   
   5.8400E+02      3.0273E+02      0.0000E+00      0.0000E+00      4.8837E-02      1.9995E+02   
   5.9250E+02      3.0287E+02      0.0000E+00      0.0000E+00      4.8843E-02      1.9995E+02   
   6.0100E+02      3.0302E+02      0.0000E+00      0.0000E+00      4.8850E-02      1.9995E+02   
   6.0950E+02      3.0316E+02      0.0000E+00      0.0000E+00      4.8856E-02      1.9995E+02   
   6.1800E+02      3.0330E+02      0.0000E+00      0.0000E+00      4.8862E-02      1.9995E+02   
   6.2650E+02      3.0344E+02      0.0000E+00      0.0000E+00      4.8869E-02      1.9995E+02   
   6.3500E+02      3.0358E+02      0.0000E+00      0.0000E+00      4.8876E-02      1.9995E+02   
   6.4350E+02      3.0372E+02      0.0000E+00      0.0000E+00      4.8883E-02      1.9995E+02   
   6.5200E+02      3.0387E+02      0.0000E+00      0.0000E+00      4.8890E-02      1.9995E+02   
   6.6050E+02      3.0401E+02      0.0000E+00      0.0000E+00      4.8898E-02      1.9995E+02   
   6.6900E+02      3.0415E+02      0.0000E+00      0.0000E+00      4.8905E-02      1.9995E+02   
   6.7750E+02      3.0429E+02      0.0000E+00      0.0000E+00      4.8913E-02      1.9995E+02   
   6.8600E+02      3.0443E+02      0.0000E+00      0.0000E+00      4.8921E-02      1.9995E+02   
   6.9450E+02      3.0457E+02      0.0000E+00      0.0000E+00      4.8929E-02      1.9995E+02   
   7.0300E+02      3.0472E+02      0.0000E+00      0.0000E+00      4.8938E-02      1.9995E+02   
   7.1150E+02      3.0486E+02      0.0000E+00      0.0000E+00      4.8946E-02      1.9995E+02   
   7.2000E+02      3.0500E+02      0.0000E+00      0.0000E+00      4.8955E-02      1.9995E+02   
   7.2850E+02      3.0514E+02      0.0000E+00      0.0000E+00      4.8964E-02      1.9995E+02   
   7.3700E+02      3.0528E+02      0.0000E+00      0.0000E+00      4.8973E-02      1.9995E+02   
   7.4550E+02      3.0542E+02      0.0000E+00      0.0000E+00      4.8982E-02      1.9995E+02   
   7.5400E+02      3.0557E+02      0.0000E+00      0.0000E+00      4.8992E-02      1.9995E+02   
   7.6250E+02      3.0571E+02      0.0000E+00      0.0000E+00      4.9001E-02      1.9995E+02   
   7.7100E+02      3.0585E+02      0.0000E+00      0.0000E+00      4.9011E-02      1.9995E+02   
   7.7950E+02      3.0599E+02      0.0000E+00      0.0000E+00      4.9022E-02      1.9995E+02   
   7.8800E+02      3.0613E+02      0.0000E+00      0.0000E+00      4.9032E-02      1.9995E+02   
   7.9650E+02      3.0627E+02      0.0000E+00      0.0000E+00      4.9043E-02      1.9995E+02   
   8.0500E+02      3.0642E+02      0.0000E+00      0.0000E+00      4.9054E-02      1.9995E+02   
   8.1350E+02      3.0656E+02      0.0000E+00      0.0000E+00      4.9065E-02      1.9995E+02   
   8.2200E+02      3.0670E+02      0.0000E+00      0.0000E+00      4.9076E-02      1.9995E+02   
   8.3050E+02      3.0684E+02      0.0000E+00      0.0000E+00      4.9088E-02      1.9995E+02   
   8.3900E+02      3.0698E+02      0.0000E+00      0.0000E+00      4.9100E-02      1.9995E+02   
   8.4750E+02      3.0712E+02      0.0000E+00      0.0000E+00      4.9112E-02      1.9995E+02   
   8.5600E+02      3.0727E+02      0.0000E+00      0.0000E+00      4.9124E-02      1.9995E+02   
   8.6450E+02      3.0741E+02      0.0000E+00      0.0000E+00      4.9137E-02      1.9995E+02   
   8.7300E+02      3.0755E+02      0.0000E+00      0.0000E+00      4.9150E-02      1.9995E+02   
   8.8150E+02      3.0769E+02      0.0000E+00      0.0000E+00      4.9163E-02      1.9995E+02   
   8.9000E+02      3.0783E+02      0.0000E+00      0.0000E+00      4.9176E-02      1.9995E+02   
   8.9850E+02      3.0797E+02      0.0000E+00      0.0000E+00      4.9190E-02      1.9995E+02   
   9.0700E+02      3.0812E+02      0.0000E+00      0.0000E+00      4.9204E-02      1.9995E+02   
   9.1550E+02      3.0826E+02      0.0000E+00      0.0000E+00      4.9219E-02      1.9995E+02   
   9.2400E+02      3.0840E+02      0.0000E+00      0.0000E+00      4.9233E-02      1.9995E+02   
   9.3250E+02      3.0854E+02      0.0000E+00      0.0000E+00      4.9248E-02      1.9995E+02   
   9.4100E+02      3.0868E+02      0.0000E+00      0.0000E+00      4.9263E-02      1.9995E+02   
   9.4950E+02      3.0882E+02      0.0000E+00      0.0000E+00      4.9279E-02      1.9995E+02   
   9.5800E+02      3.0897E+02      0.0000E+00      0.0000E+00      4.9295E-02      1.9995E+02   
   9.6650E+02      3.0911E+02      0.0000E+00      0.0000E+00      4.9311E-02      1.9995E+02   
   9.7500E+02      3.0925E+02      0.0000E+00      0.0000E+00      4.9327E-02      1.9995E+02   
   9.8350E+02      3.0939E+02      0.0000E+00      0.0000E+00      4.9344E-02      1.9995E+02   
   9.9200E+02      3.0953E+02      0.0000E+00      0.0000E+00      4.9361E-02      1.9995E+02   
   1.0005E+03      3.0967E+02      0.0000E+00      0.0000E+00      4.9378E-02      1.9995E+02   
   1.0090E+03      3.0982E+02      0.0000E+00      0.0000E+00      4.9396E-02      1.9995E+02   
   1.0175E+03      3.0996E+02      0.0000E+00      0.0000E+00      4.9414E-02      1.9995E+02   
   1.0260E+03      3.1010E+02      0.0000E+00      0.0000E+00      4.9433E-02      1.9995E+02   
   1.0345E+03      3.1024E+02      0.0000E+00      0.0000E+00      4.9452E-02      1.9995E+02   
   1.0430E+03      3.1038E+02      0.0000E+00      0.0000E+00      4.9471E-02      1.9995E+02   
   1.0515E+03      3.1052E+02      0.0000E+00      0.0000E+00      4.9490E-02      1.9995E+02   
   1.0600E+03      3.1067E+02      0.0000E+00      0.0000E+00      4.9510E-02      1.9995E+02   
   1.0685E+03      3.1081E+02      0.0000E+00      0.0000E+00      4.9531E-02      1.9995E+02   
   1.0770E+03      3.1095E+02      0.0000E+00      0.0000E+00      4.9551E-02      1.9995E+02   
   1.0855E+03      3.1109E+02      0.0000E+00      0.0000E+00      4.9572E-02      1.9995E+02   
   1.0940E+03      3.1123E+02      0.0000E+00      0.0000E+00      4.9594E-02      1.9995E+02   
   1.1025E+03      3.1137E+02      0.0000E+00      0.0000E+00      4.9616E-02      1.9995E+02   
   1.1110E+03      3.1152E+02      0.0000E+00      0.0000E+00      4.9638E-02      1.9995E+02   
   1.1195E+03      3.1166E+02      0.0000E+00      0.0000E+00      4.9661E-02      1.9995E+02   
   1.1280E+03      3.1180E+02      0.0000E+00      0.0000E+00      4.9684E-02      1.9995E+02   
   1.1365E+03      3.1194E+02      0.0000E+00      0.0000E+00      4.9707E-02      1.9995E+02   
   1.1450E+03      3.1208E+02      0.0000E+00      0.0000E+00      4.9731E-02      1.9995E+02   
   1.1535E+03      3.1222E+02      0.0000E+00      0.0000E+00      4.9756E-02      1.9995E+02   
   1.1620E+03      3.1237E+02      0.0000E+00      0.0000E+00      4.9781E-02      1.9995E+02   
   1.1705E+03      3.1251E+02      0.0000E+00      0.0000E+00      4.9806E-02      1.9995E+02   
   1.1790E+03      3.1265E+02      0.0000E+00      0.0000E+00      4.9832E-02      1.9995E+02   
   1.1875E+03      3.1279E+02      0.0000E+00      0.0000E+00      4.9858E-02      1.9995E+02   
   1.1960E+03      3.1293E+02      0.0000E+00      0.0000E+00      4.9885E-02      1.9995E+02   
   1.2045E+03      3.1307E+02      0.0000E+00      0.0000E+00      4.9912E-02      1.9995E+02   
   1.2130E+03      3.1322E+02      0.0000E+00      0.0000E+00      4.9940E-02      1.9995E+02   
   1.2215E+03      3.1336E+02      0.0000E+00      0.0000E+00      4.9968E-02      1.9995E+02   
   1.2300E+03      3.1350E+02      0.0000E+00      0.0000E+00      4.9996E-02      1.9995E+02   
   1.2385E+03      3.1364E+02      0.0000E+00      0.0000E+00      5.0026E-02      1.9995E+02   
   1.2470E+03      3.1378E+02      0.0000E+00      0.0000E+00      5.0055E-02      1.9995E+02   
   1.2555E+03      3.1392E+02      0.0000E+00      0.0000E+00      5.0085E-02      1.9995E+02   
   1.2640E+03      3.1407E+02      0.0000E+00      0.0000E+00      5.0116E-02      1.9995E+02   
   1.2725E+03      3.1421E+02      0.0000E+00      0.0000E+00      5.0147E-02      1.9995E+02   
   1.2810E+03      3.1435E+02      0.0000E+00      0.0000E+00      5.0179E-02      1.9995E+02   
   1.2895E+03      3.1449E+02      0.0000E+00      0.0000E+00      5.0212E-02      1.9995E+02   
   1.2980E+03      3.1463E+02      0.0000E+00      0.0000E+00      5.0244E-02      1.9995E+02   
   1.3065E+03      3.1477E+02      0.0000E+00      0.0000E+00      5.0278E-02      1.9995E+02   
   1.3150E+03      3.1492E+02      0.0000E+00      0.0000E+00      5.0312E-02      1.9995E+02   
   1.3235E+03      3.1506E+02      0.0000E+00      0.0000E+00      5.0347E-02      1.9995E+02   
   1.3320E+03      3.1520E+02      0.0000E+00      0.0000E+00      5.0382E-02      1.9995E+02   
   1.3405E+03      3.1534E+02      0.0000E+00      0.0000E+00      5.0418E-02      1.9995E+02   
   1.3490E+03      3.1548E+02      0.0000E+00      0.0000E+00      5.0454E-02      1.9995E+02   
   1.3575E+03      3.1562E+02      0.0000E+00      0.0000E+00      5.0491E-02      1.9995E+02   
   1.3660E+03      3.1577E+02      0.0000E+00      0.0000E+00      5.0529E-02      1.9995E+02   
   1.3745E+03      3.1591E+02      0.0000E+00      0.0000E+00      5.0567E-02      1.9995E+02   
   1.3830E+03      3.1605E+02      0.0000E+00      0.0000E+00      5.0606E-02      1.9995E+02   
   1.3915E+03      3.1619E+02      0.0000E+00      0.0000E+00      5.0646E-02      1.9995E+02   
   1.4000E+03      3.1633E+02      0.0000E+00      0.0000E+00      5.0686E-02      1.9995E+02   
   1.4085E+03      3.1647E+02      0.0000E+00      0.0000E+00      5.0727E-02      1.9995E+02   
   1.4170E+03      3.1662E+02      0.0000E+00      0.0000E+00      5.0769E-02      1.9995E+02   
   1.4255E+03      3.1676E+02      0.0000E+00      0.0000E+00      5.0811E-02      1.9995E+02   
   1.4340E+03      3.1690E+02      0.0000E+00      0.0000E+00      5.0854E-02      1.9995E+02   
   1.4425E+03      3.1704E+02      0.0000E+00      0.0000E+00      5.0898E-02      1.9995E+02   
   1.4510E+03      3.1718E+02      0.0000E+00      0.0000E+00      5.0942E-02      1.9995E+02   
   1.4595E+03      3.1732E+02      0.0000E+00      0.0000E+00      5.0987E-02      1.9995E+02   
   1.4680E+03      3.1747E+02      0.0000E+00      0.0000E+00      5.1033E-02      1.9995E+02   
   1.4765E+03      3.1761E+02      0.0000E+00      0.0000E+00      5.1080E-02      1.9995E+02   
   1.4850E+03      3.1775E+02      0.0000E+00      0.0000E+00      5.1127E-02      1.9995E+02   
   1.4935E+03      3.1789E+02      0.0000E+00      0.0000E+00      5.1175E-02      1.9995E+02   
   1.5020E+03      3.1803E+02      0.0000E+00      0.0000E+00      5.1224E-02      1.9995E+02   
   1.5105E+03      3.1817E+02      0.0000E+00      0.0000E+00      5.1274E-02      1.9995E+02   
   1.5190E+03      3.1832E+02      0.0000E+00      0.0000E+00      5.1324E-02      1.9995E+02   
   1.5275E+03      3.1846E+02      0.0000E+00      0.0000E+00      5.1376E-02      1.9995E+02   
   1.5360E+03      3.1860E+02      0.0000E+00      0.0000E+00      5.1428E-02      1.9995E+02   
   1.5445E+03      3.1874E+02      0.0000E+00      0.0000E+00      5.1481E-02      1.9995E+02   
   1.5530E+03      3.1888E+02      0.0000E+00      0.0000E+00      5.1535E-02      1.9995E+02   
   1.5615E+03      3.1902E+02      0.0000E+00      0.0000E+00      5.1589E-02      1.9995E+02   
   1.5700E+03      3.1917E+02      0.0000E+00      0.0000E+00      5.1645E-02      1.9995E+02   
   1.5785E+03      3.1931E+02      0.0000E+00      0.0000E+00      5.1701E-02      1.9995E+02   
   1.5870E+03      3.1945E+02      0.0000E+00      0.0000E+00      5.1759E-02      1.9995E+02   
   1.5955E+03      3.1959E+02      0.0000E+00      0.0000E+00      5.1817E-02      1.9995E+02   
   1.6040E+03      3.1973E+02      0.0000E+00      0.0000E+00      5.1876E-02      1.9995E+02   
   1.6125E+03      3.1987E+02      0.0000E+00      0.0000E+00      5.1936E-02      1.9995E+02   
   1.6210E+03      3.2002E+02      0.0000E+00      0.0000E+00      5.1997E-02      1.9995E+02   
   1.6295E+03      3.2016E+02      0.0000E+00      0.0000E+00      5.2059E-02      1.9995E+02   
   1.6380E+03      3.2030E+02      0.0000E+00      0.0000E+00      5.2122E-02      1.9995E+02   
   1.6465E+03      3.2044E+02      0.0000E+00      0.0000E+00      5.2185E-02      1.9995E+02   
   1.6550E+03      3.2058E+02      0.0000E+00      0.0000E+00      5.2250E-02      1.9995E+02   
   1.6635E+03      3.2072E+02      0.0000E+00      0.0000E+00      5.2316E-02      1.9995E+02   
   1.6720E+03      3.2087E+02      0.0000E+00      0.0000E+00      5.2383E-02      1.9995E+02   
   1.6805E+03      3.2101E+02      0.0000E+00      0.0000E+00      5.2451E-02      1.9995E+02   
   1.6890E+03      3.2115E+02      0.0000E+00      0.0000E+00      5.2520E-02      1.9995E+02   
   1.6975E+03      3.2129E+02      0.0000E+00      0.0000E+00      5.2590E-02      1.9995E+02   
   1.7060E+03      3.2143E+02      0.0000E+00      0.0000E+00      5.2661E-02      1.9995E+02   
   1.7145E+03      3.2157E+02      0.0000E+00      0.0000E+00      5.2733E-02      1.9995E+02   
   1.7230E+03      3.2172E+02      0.0000E+00      0.0000E+00      5.2806E-02      1.9995E+02   
