Results for node = 1
    time [h]    temperature [K]    growth [/]    nucleation [/]   Css [wt.ppm]    Cp [wt.ppm]   
   0.0000E+00      2.9300E+02      0.0000E+00      0.0000E+00      4.8676E-02      1.9995E+02   
   3.3472E-02      2.9501E+02      0.0000E+00      0.0000E+00      4.8681E-02      1.9995E+02   
   6.6944E-02      2.9702E+02      0.0000E+00      0.0000E+00      4.8696E-02      1.9995E+02   
   1.0042E-01      2.9902E+02      0.0000E+00      0.0000E+00      4.8726E-02      1.9995E+02   
   1.3389E-01      3.0103E+02      0.0000E+00      0.0000E+00      4.8776E-02      1.9995E+02   
   1.6736E-01      3.0304E+02      0.0000E+00      0.0000E+00      4.8851E-02      1.9995E+02   
   2.0083E-01      3.0505E+02      0.0000E+00      0.0000E+00      4.8958E-02      1.9995E+02   
   2.3431E-01      3.0706E+02      0.0000E+00      0.0000E+00      4.9107E-02      1.9995E+02   
   2.4431E-01      3.0766E+02      0.0000E+00      0.0000E+00      4.9161E-02      1.9995E+02   
   2.7778E-01      3.0967E+02      0.0000E+00      0.0000E+00      4.9378E-02      1.9995E+02   
   3.1125E-01      3.1167E+02      0.0000E+00      0.0000E+00      4.9665E-02      1.9995E+02   
   3.4472E-01      3.1368E+02      0.0000E+00      0.0000E+00      5.0036E-02      1.9995E+02   
   3.7819E-01      3.1569E+02      0.0000E+00      0.0000E+00      5.0511E-02      1.9995E+02   
   4.1167E-01      3.1770E+02      0.0000E+00      0.0000E+00      5.1113E-02      1.9995E+02   
   4.4514E-01      3.1971E+02      0.0000E+00      0.0000E+00      5.1869E-02      1.9995E+02   
   4.7861E-01      3.2172E+02      0.0000E+00      0.0000E+00      5.2810E-02      1.9995E+02   
   5.1208E-01      3.2372E+02      0.0000E+00      0.0000E+00      5.3975E-02      1.9995E+02   
   5.4556E-01      3.2573E+02      0.0000E+00      0.0000E+00      5.5407E-02      1.9994E+02   
   5.7903E-01      3.2774E+02      0.0000E+00      0.0000E+00      5.7156E-02      1.9994E+02   
   6.1250E-01      3.2975E+02      0.0000E+00      0.0000E+00      5.9282E-02      1.9994E+02   
   6.4597E-01      3.3176E+02      0.0000E+00      0.0000E+00      6.1852E-02      1.9994E+02   
   6.7944E-01      3.3377E+02      0.0000E+00      0.0000E+00      6.4944E-02      1.9994E+02   
   7.1292E-01      3.3577E+02      0.0000E+00      0.0000E+00      6.8647E-02      1.9993E+02   
   7.4639E-01      3.3778E+02      0.0000E+00      0.0000E+00      7.3061E-02      1.9993E+02   
   7.7986E-01      3.3979E+02      0.0000E+00      0.0000E+00      7.8302E-02      1.9992E+02   
   8.1333E-01      3.4180E+02      0.0000E+00      0.0000E+00      8.4498E-02      1.9992E+02   
   8.4681E-01      3.4381E+02      0.0000E+00      0.0000E+00      9.1793E-02      1.9991E+02   
   8.8028E-01      3.4582E+02      0.0000E+00      0.0000E+00      1.0035E-01      1.9990E+02   
   9.1375E-01      3.4782E+02      0.0000E+00      0.0000E+00      1.1034E-01      1.9989E+02   
   9.4722E-01      3.4983E+02      0.0000E+00      0.0000E+00      1.2196E-01      1.9988E+02   
   9.8069E-01      3.5184E+02      0.0000E+00      0.0000E+00      1.3544E-01      1.9986E+02   
   1.0142E+00      3.5385E+02      0.0000E+00      0.0000E+00      1.5099E-01      1.9985E+02   
   1.0476E+00      3.5586E+02      0.0000E+00      0.0000E+00      1.6888E-01      1.9983E+02   
   1.0811E+00      3.5787E+02      0.0000E+00      0.0000E+00      1.8936E-01      1.9981E+02   
   1.1146E+00      3.5987E+02      0.0000E+00      0.0000E+00      2.1273E-01      1.9979E+02   
   1.1481E+00      3.6188E+02      0.0000E+00      0.0000E+00      2.3929E-01      1.9976E+02   
   1.1815E+00      3.6389E+02      0.0000E+00      0.0000E+00      2.6935E-01      1.9973E+02   
   1.2150E+00      3.6590E+02      0.0000E+00      0.0000E+00      3.0323E-01      1.9970E+02   
   1.2485E+00      3.6791E+02      0.0000E+00      0.0000E+00      3.4127E-01      1.9966E+02   
   1.2819E+00      3.6992E+02      0.0000E+00      0.0000E+00      3.8379E-01      1.9962E+02   
   1.3154E+00      3.7192E+02      0.0000E+00      0.0000E+00      4.3112E-01      1.9957E+02   
   1.3489E+00      3.7393E+02      0.0000E+00      0.0000E+00      4.8360E-01      1.9952E+02   
   1.3824E+00      3.7594E+02      0.0000E+00      0.0000E+00      5.4152E-01      1.9946E+02   
   1.4158E+00      3.7795E+02      0.0000E+00      0.0000E+00      6.0519E-01      1.9939E+02   
   1.4493E+00      3.7996E+02      0.0000E+00      0.0000E+00      6.7486E-01      1.9933E+02   
   1.4828E+00      3.8197E+02      0.0000E+00      0.0000E+00      7.5079E-01      1.9925E+02   
   1.5162E+00      3.8397E+02      0.0000E+00      0.0000E+00      8.3317E-01      1.9917E+02   
   1.5497E+00      3.8598E+02      0.0000E+00      0.0000E+00      9.2219E-01      1.9908E+02   
   1.5832E+00      3.8799E+02      0.0000E+00      0.0000E+00      1.0180E+00      1.9898E+02   
   1.6167E+00      3.9000E+02      0.0000E+00      0.0000E+00      1.1206E+00      1.9888E+02   
   1.6501E+00      3.9201E+02      0.0000E+00      0.0000E+00      1.2302E+00      1.9877E+02   
   1.6836E+00      3.9402E+02      0.0000E+00      0.0000E+00      1.3466E+00      1.9865E+02   
   1.7171E+00      3.9602E+02      0.0000E+00      0.0000E+00      1.4700E+00      1.9853E+02   
   1.7506E+00      3.9803E+02      0.0000E+00      0.0000E+00      1.6003E+00      1.9840E+02   
   1.7840E+00      4.0004E+02      0.0000E+00      0.0000E+00      1.7374E+00      1.9826E+02   
   1.8175E+00      4.0205E+02      0.0000E+00      0.0000E+00      1.8812E+00      1.9812E+02   
   1.8510E+00      4.0406E+02      0.0000E+00      0.0000E+00      2.0317E+00      1.9797E+02   
   1.8844E+00      4.0607E+02      0.0000E+00      0.0000E+00      2.1888E+00      1.9781E+02   
   1.9179E+00      4.0807E+02      0.0000E+00      0.0000E+00      2.3525E+00      1.9765E+02   
   1.9514E+00      4.1008E+02      0.0000E+00      0.0000E+00      2.5226E+00      1.9748E+02   
   1.9849E+00      4.1209E+02      0.0000E+00      0.0000E+00      2.6993E+00      1.9730E+02   
   2.0183E+00      4.1410E+02      0.0000E+00      0.0000E+00      2.8826E+00      1.9712E+02   
   2.0518E+00      4.1611E+02      0.0000E+00      0.0000E+00      3.0725E+00      1.9693E+02   
   2.0853E+00      4.1812E+02      0.0000E+00      0.0000E+00      3.2691E+00      1.9673E+02   
   2.1187E+00      4.2012E+02      0.0000E+00      0.0000E+00      3.4725E+00      1.9653E+02   
   2.1522E+00      4.2213E+02      0.0000E+00      0.0000E+00      3.6830E+00      1.9632E+02   
   2.1857E+00      4.2414E+02      0.0000E+00      0.0000E+00      3.9007E+00      1.9610E+02   
   2.2192E+00      4.2615E+02      0.0000E+00      0.0000E+00      4.1258E+00      1.9587E+02   
   2.2526E+00      4.2816E+02      0.0000E+00      0.0000E+00      4.3585E+00      1.9564E+02   
   2.2861E+00      4.3017E+02      0.0000E+00      0.0000E+00      4.5991E+00      1.9540E+02   
   2.3196E+00      4.3217E+02      0.0000E+00      0.0000E+00      4.8479E+00      1.9515E+02   
   2.3531E+00      4.3418E+02      0.0000E+00      0.0000E+00      5.1051E+00      1.9489E+02   
   2.3865E+00      4.3619E+02      0.0000E+00      0.0000E+00      5.3709E+00      1.9463E+02   
   2.4200E+00      4.3820E+02      0.0000E+00      0.0000E+00      5.6457E+00      1.9435E+02   
   2.4535E+00      4.4021E+02      0.0000E+00      0.0000E+00      5.9297E+00      1.9407E+02   
   2.4869E+00      4.4222E+02      0.0000E+00      0.0000E+00      6.2231E+00      1.9378E+02   
   2.5204E+00      4.4422E+02      0.0000E+00      0.0000E+00      6.5259E+00      1.9347E+02   
   2.5538E+00      4.4623E+02      0.0000E+00      0.0000E+00      6.8392E+00      1.9316E+02   
   2.5872E+00      4.4823E+02      0.0000E+00      0.0000E+00      7.1615E+00      1.9284E+02   
   2.6206E+00      4.5023E+02      0.0000E+00      0.0000E+00      7.4946E+00      1.9251E+02   
   2.6540E+00      4.5224E+02      0.0000E+00      0.0000E+00      7.8389E+00      1.9216E+02   
   2.6875E+00      4.5425E+02      0.0000E+00      0.0000E+00      8.1950E+00      1.9180E+02   
   2.7209E+00      4.5625E+02      0.0000E+00      0.0000E+00      8.5615E+00      1.9144E+02   
   2.7542E+00      4.5825E+02      0.0000E+00      0.0000E+00      8.9390E+00      1.9106E+02   
   2.7876E+00      4.6026E+02      0.0000E+00      0.0000E+00      9.3286E+00      1.9067E+02   
   2.8211E+00      4.6227E+02      0.0000E+00      0.0000E+00      9.7318E+00      1.9027E+02   
   2.8546E+00      4.6427E+02      0.0000E+00      0.0000E+00      1.0147E+01      1.8985E+02   
   2.8881E+00      4.6629E+02      0.0000E+00      0.0000E+00      1.0577E+01      1.8942E+02   
   2.9217E+00      4.6830E+02      0.0000E+00      0.0000E+00      1.1019E+01      1.8898E+02   
   2.9551E+00      4.7030E+02      0.0000E+00      0.0000E+00      1.1472E+01      1.8853E+02   
   2.9884E+00      4.7230E+02      0.0000E+00      0.0000E+00      1.1939E+01      1.8806E+02   
   3.0220E+00      4.7432E+02      0.0000E+00      0.0000E+00      1.2422E+01      1.8758E+02   
   3.0556E+00      4.7634E+02      0.0000E+00      0.0000E+00      1.2921E+01      1.8708E+02   
   3.0892E+00      4.7835E+02      0.0000E+00      0.0000E+00      1.3434E+01      1.8657E+02   
   3.1226E+00      4.8036E+02      0.0000E+00      0.0000E+00      1.3959E+01      1.8604E+02   
   3.1561E+00      4.8237E+02      0.0000E+00      0.0000E+00      1.4500E+01      1.8550E+02   
   3.1896E+00      4.8438E+02      0.0000E+00      0.0000E+00      1.5057E+01      1.8494E+02   
   3.2230E+00      4.8638E+02      0.0000E+00      0.0000E+00      1.5628E+01      1.8437E+02   
   3.2567E+00      4.8840E+02      0.0000E+00      0.0000E+00      1.6219E+01      1.8378E+02   
   3.2905E+00      4.9043E+02      0.0000E+00      0.0000E+00      1.6830E+01      1.8317E+02   
   3.3244E+00      4.9246E+02      0.0000E+00      0.0000E+00      1.7459E+01      1.8254E+02   
   3.3583E+00      4.9450E+02      0.0000E+00      0.0000E+00      1.8105E+01      1.8189E+02   
   3.3920E+00      4.9652E+02      0.0000E+00      0.0000E+00      1.8765E+01      1.8123E+02   
   3.4253E+00      4.9852E+02      0.0000E+00      0.0000E+00      1.9436E+01      1.8056E+02   
   3.4589E+00      5.0054E+02      0.0000E+00      0.0000E+00      2.0131E+01      1.7987E+02   
   3.4928E+00      5.0257E+02      0.0000E+00      0.0000E+00      2.0848E+01      1.7915E+02   
   3.5268E+00      5.0461E+02      0.0000E+00      0.0000E+00      2.1588E+01      1.7841E+02   
   3.5608E+00      5.0665E+02      0.0000E+00      0.0000E+00      2.2347E+01      1.7765E+02   
   3.5947E+00      5.0868E+02      0.0000E+00      0.0000E+00      2.3124E+01      1.7688E+02   
   3.6283E+00      5.1070E+02      0.0000E+00      0.0000E+00      2.3915E+01      1.7608E+02   
   3.6627E+00      5.1276E+02      0.0000E+00      0.0000E+00      2.4745E+01      1.7526E+02   
   3.6967E+00      5.1480E+02      0.0000E+00      0.0000E+00      2.5584E+01      1.7442E+02   
   3.7312E+00      5.1687E+02      0.0000E+00      0.0000E+00      2.6460E+01      1.7354E+02   
   3.7651E+00      5.1891E+02      0.0000E+00      0.0000E+00      2.7339E+01      1.7266E+02   
   3.7994E+00      5.2096E+02      0.0000E+00      0.0000E+00      2.8252E+01      1.7175E+02   
   3.8340E+00      5.2304E+02      0.0000E+00      0.0000E+00      2.9198E+01      1.7080E+02   
   3.8675E+00      5.2505E+02      0.0000E+00      0.0000E+00      3.0133E+01      1.6987E+02   
   3.9011E+00      5.2706E+02      0.0000E+00      0.0000E+00      3.1094E+01      1.6891E+02   
   3.9347E+00      5.2908E+02      0.0000E+00      0.0000E+00      3.2079E+01      1.6792E+02   
   3.9682E+00      5.3109E+02      0.0000E+00      0.0000E+00      3.3085E+01      1.6692E+02   
   4.0016E+00      5.3310E+02      0.0000E+00      0.0000E+00      3.4109E+01      1.6589E+02   
   4.0367E+00      5.3520E+02      0.0000E+00      0.0000E+00      3.5210E+01      1.6479E+02   
   4.0716E+00      5.3729E+02      0.0000E+00      0.0000E+00      3.6329E+01      1.6367E+02   
   4.1060E+00      5.3936E+02      0.0000E+00      0.0000E+00      3.7463E+01      1.6254E+02   
   4.1399E+00      5.4140E+02      0.0000E+00      0.0000E+00      3.8603E+01      1.6140E+02   
   4.1750E+00      5.4350E+02      0.0000E+00      0.0000E+00      3.9804E+01      1.6020E+02   
   4.2090E+00      5.4554E+02      0.0000E+00      0.0000E+00      4.0993E+01      1.5901E+02   
   4.2439E+00      5.4764E+02      0.0000E+00      0.0000E+00      4.2242E+01      1.5776E+02   
   4.2776E+00      5.4966E+02      0.0000E+00      0.0000E+00      4.3472E+01      1.5653E+02   
   4.3121E+00      5.5173E+02      0.0000E+00      0.0000E+00      4.4760E+01      1.5524E+02   
   4.3473E+00      5.5384E+02      0.0000E+00      0.0000E+00      4.6103E+01      1.5390E+02   
   4.3813E+00      5.5588E+02      0.0000E+00      0.0000E+00      4.7427E+01      1.5257E+02   
   4.4159E+00      5.5796E+02      0.0000E+00      0.0000E+00      4.8804E+01      1.5120E+02   
   4.4493E+00      5.5996E+02      0.0000E+00      0.0000E+00      5.0161E+01      1.4984E+02   
   4.4833E+00      5.6200E+02      0.0000E+00      0.0000E+00      5.1569E+01      1.4843E+02   
   4.5178E+00      5.6407E+02      0.0000E+00      0.0000E+00      5.3027E+01      1.4697E+02   
   4.5526E+00      5.6616E+02      0.0000E+00      0.0000E+00      5.4532E+01      1.4547E+02   
   4.5863E+00      5.6818E+02      0.0000E+00      0.0000E+00      5.6016E+01      1.4398E+02   
   4.6204E+00      5.7022E+02      0.0000E+00      0.0000E+00      5.7546E+01      1.4245E+02   
   4.6548E+00      5.7229E+02      0.0000E+00      0.0000E+00      5.9120E+01      1.4088E+02   
   4.6894E+00      5.7436E+02      0.0000E+00      0.0000E+00      6.0737E+01      1.3926E+02   
   4.7228E+00      5.7637E+02      0.0000E+00      0.0000E+00      6.2332E+01      1.3767E+02   
   4.7565E+00      5.7839E+02      0.0000E+00      0.0000E+00      6.3968E+01      1.3603E+02   
   4.7904E+00      5.8043E+02      0.0000E+00      0.0000E+00      6.5644E+01      1.3436E+02   
   4.8245E+00      5.8247E+02      0.0000E+00      0.0000E+00      6.7359E+01      1.3264E+02   
   4.8586E+00      5.8452E+02      0.0000E+00      0.0000E+00      6.9112E+01      1.3089E+02   
   4.8928E+00      5.8657E+02      0.0000E+00      0.0000E+00      7.0900E+01      1.2910E+02   
   4.9270E+00      5.8862E+02      0.0000E+00      0.0000E+00      7.2724E+01      1.2728E+02   
   4.9612E+00      5.9067E+02      0.0000E+00      0.0000E+00      7.4581E+01      1.2542E+02   
   4.9954E+00      5.9272E+02      0.0000E+00      0.0000E+00      7.6471E+01      1.2353E+02   
   5.0296E+00      5.9477E+02      0.0000E+00      0.0000E+00      7.8392E+01      1.2161E+02   
   5.0637E+00      5.9682E+02      0.0000E+00      0.0000E+00      8.0345E+01      1.1966E+02   
   5.0977E+00      5.9886E+02      0.0000E+00      0.0000E+00      8.2327E+01      1.1767E+02   
   5.1316E+00      6.0089E+02      0.0000E+00      0.0000E+00      8.4338E+01      1.1566E+02   
   5.1654E+00      6.0292E+02      0.0000E+00      0.0000E+00      8.6377E+01      1.1362E+02   
   5.1990E+00      6.0494E+02      0.0000E+00      0.0000E+00      8.8443E+01      1.1156E+02   
   5.2326E+00      6.0695E+02      0.0000E+00      0.0000E+00      9.0536E+01      1.0946E+02   
   5.2659E+00      6.0896E+02      0.0000E+00      0.0000E+00      9.2655E+01      1.0735E+02   
   5.2999E+00      6.1100E+02      0.0000E+00      0.0000E+00      9.4849E+01      1.0515E+02   
   5.3337E+00      6.1302E+02      0.0000E+00      0.0000E+00      9.7066E+01      1.0293E+02   
   5.3673E+00      6.1504E+02      0.0000E+00      0.0000E+00      9.9306E+01      1.0069E+02   
   5.4007E+00      6.1704E+02      0.0000E+00      0.0000E+00      1.0157E+02      9.8433E+01   
   5.4346E+00      6.1907E+02      0.0000E+00      0.0000E+00      1.0390E+02      9.6101E+01   
   5.4682E+00      6.2109E+02      0.0000E+00      0.0000E+00      1.0625E+02      9.3751E+01   
   5.5015E+00      6.2309E+02      0.0000E+00      0.0000E+00      1.0862E+02      9.1380E+01   
   5.5352E+00      6.2511E+02      0.0000E+00      0.0000E+00      1.1105E+02      8.8945E+01   
   5.5687E+00      6.2712E+02      0.0000E+00      0.0000E+00      1.1351E+02      8.6492E+01   
   5.6024E+00      6.2915E+02      0.0000E+00      0.0000E+00      1.1602E+02      8.3978E+01   
   5.6359E+00      6.3115E+02      0.0000E+00      0.0000E+00      1.1855E+02      8.1447E+01   
   5.6696E+00      6.3318E+02      0.0000E+00      0.0000E+00      1.2114E+02      7.8857E+01   
   5.7030E+00      6.3518E+02      0.0000E+00      0.0000E+00      1.2375E+02      7.6253E+01   
   5.7367E+00      6.3720E+02      0.0000E+00      0.0000E+00      1.2641E+02      7.3593E+01   
   5.7705E+00      6.3923E+02      0.0000E+00      0.0000E+00      1.2912E+02      7.0877E+01   
   5.8040E+00      6.4124E+02      0.0000E+00      0.0000E+00      1.3185E+02      6.8150E+01   
   5.8376E+00      6.4325E+02      0.0000E+00      0.0000E+00      1.3463E+02      6.5370E+01   
   5.8713E+00      6.4528E+02      0.0000E+00      0.0000E+00      1.3746E+02      6.2538E+01   
   5.9047E+00      6.4728E+02      0.0000E+00      0.0000E+00      1.4030E+02      5.9698E+01   
   5.9382E+00      6.4929E+02      0.0000E+00      0.0000E+00      1.4319E+02      5.6808E+01   
   5.9717E+00      6.5130E+02      0.0000E+00      0.0000E+00      1.4613E+02      5.3870E+01   
   6.0053E+00      6.5332E+02      0.0000E+00      0.0000E+00      1.4911E+02      5.0886E+01   
   6.0390E+00      6.5534E+02      0.0000E+00      0.0000E+00      1.5214E+02      4.7856E+01   
   6.0726E+00      6.5736E+02      0.0000E+00      0.0000E+00      1.5522E+02      4.4782E+01   
   6.1063E+00      6.5938E+02      0.0000E+00      0.0000E+00      1.5833E+02      4.1666E+01   
   6.1399E+00      6.6140E+02      0.0000E+00      0.0000E+00      1.6149E+02      3.8508E+01   
   6.1735E+00      6.6341E+02      0.0000E+00      0.0000E+00      1.6469E+02      3.5309E+01   
   6.2071E+00      6.6543E+02      0.0000E+00      0.0000E+00      1.6793E+02      3.2071E+01   
   6.2406E+00      6.6744E+02      0.0000E+00      0.0000E+00      1.7121E+02      2.8795E+01   
   6.2741E+00      6.6945E+02      0.0000E+00      0.0000E+00      1.7452E+02      2.5481E+01   
   6.3075E+00      6.7145E+02      0.0000E+00      0.0000E+00      1.7787E+02      2.2131E+01   
   6.3412E+00      6.7347E+02      0.0000E+00      0.0000E+00      1.8129E+02      1.8709E+01   
   6.3747E+00      6.7548E+02      0.0000E+00      0.0000E+00      1.8475E+02      1.5254E+01   
   6.4082E+00      6.7749E+02      0.0000E+00      0.0000E+00      1.8823E+02      1.1766E+01   
   6.4418E+00      6.7951E+02      0.0000E+00      0.0000E+00      1.9179E+02      8.2113E+00   
   6.4753E+00      6.8152E+02      0.0000E+00      0.0000E+00      1.9537E+02      4.6258E+00   
   6.5087E+00      6.8352E+02      0.0000E+00      0.0000E+00      1.9899E+02      1.0103E+00   
   6.5420E+00      6.8552E+02      0.0000E+00      0.0000E+00      2.0000E+02     -2.7045E-03   
   6.5754E+00      6.8752E+02      0.0000E+00      0.0000E+00      2.0000E+02     -2.7045E-03   
   6.6087E+00      6.8952E+02      0.0000E+00      0.0000E+00      2.0000E+02     -2.7045E-03   
   6.6421E+00      6.9152E+02      0.0000E+00      0.0000E+00      2.0000E+02     -2.7045E-03   
   6.6754E+00      6.9352E+02      0.0000E+00      0.0000E+00      2.0000E+02     -2.7045E-03   
   6.7087E+00      6.9552E+02      0.0000E+00      0.0000E+00      2.0000E+02     -2.7045E-03   
   6.7421E+00      6.9752E+02      0.0000E+00      0.0000E+00      2.0000E+02     -2.7045E-03   
   6.7754E+00      6.9952E+02      0.0000E+00      0.0000E+00      2.0000E+02     -2.7045E-03   
   6.8088E+00      7.0153E+02      0.0000E+00      0.0000E+00      2.0000E+02     -2.7045E-03   
