Results for node = 1
    time [m]    temperature [K]    growth [/]    nucleation [/]   Css [wt.ppm]    Cp [wt.ppm]   
   0.0000E+00      2.9300E+02      0.0000E+00      0.0000E+00      4.8676E-02      1.9995E+02   
   6.6667E-02      2.9633E+02      0.0000E+00      0.0000E+00      4.8676E-02      1.9995E+02   
   2.4167E-01      3.0508E+02      0.0000E+00      0.0000E+00      4.8682E-02      1.9995E+02   
   4.1667E-01      3.1383E+02      0.0000E+00      0.0000E+00      4.8705E-02      1.9995E+02   
   5.9167E-01      3.2258E+02      0.0000E+00      0.0000E+00      4.8773E-02      1.9995E+02   
   7.6667E-01      3.3133E+02      0.0000E+00      0.0000E+00      4.8944E-02      1.9995E+02   
   9.4167E-01      3.4008E+02      0.0000E+00      0.0000E+00      4.9338E-02      1.9995E+02   
   1.1167E+00      3.4883E+02      0.0000E+00      0.0000E+00      5.0192E-02      1.9995E+02   
   1.2917E+00      3.5758E+02      0.0000E+00      0.0000E+00      5.1943E-02      1.9995E+02   
   1.4667E+00      3.6633E+02      0.0000E+00      0.0000E+00      5.5382E-02      1.9994E+02   
   1.6417E+00      3.7508E+02      0.0000E+00      0.0000E+00      6.1881E-02      1.9994E+02   
   1.8167E+00      3.8383E+02      0.0000E+00      0.0000E+00      7.3748E-02      1.9993E+02   
   1.9917E+00      3.9258E+02      0.0000E+00      0.0000E+00      9.4744E-02      1.9991E+02   
   2.1667E+00      4.0133E+02      0.0000E+00      0.0000E+00      1.3082E-01      1.9987E+02   
   2.3417E+00      4.1008E+02      0.0000E+00      0.0000E+00      1.9109E-01      1.9981E+02   
   2.5167E+00      4.1883E+02      0.0000E+00      0.0000E+00      2.8915E-01      1.9971E+02   
   2.6917E+00      4.2758E+02      0.0000E+00      0.0000E+00      4.4459E-01      1.9956E+02   
   2.8667E+00      4.3633E+02      0.0000E+00      0.0000E+00      6.8472E-01      1.9932E+02   
   3.0351E+00      4.4475E+02      0.0000E+00      0.0000E+00      1.0318E+00      1.9897E+02   
   3.2120E+00      4.5360E+02      0.0000E+00      0.0000E+00      1.5724E+00      1.9843E+02   
   3.3928E+00      4.6264E+02      0.0000E+00      0.0000E+00      2.3758E+00      1.9762E+02   
   3.5778E+00      4.7189E+02      0.0000E+00      0.0000E+00      3.5483E+00      1.9645E+02   
   3.7468E+00      4.8034E+02      0.0000E+00      0.0000E+00      5.0179E+00      1.9498E+02   
   3.9341E+00      4.8971E+02      0.0000E+00      0.0000E+00      7.1984E+00      1.9280E+02   
   4.1391E+00      4.9995E+02      0.0000E+00      0.0000E+00      1.0380E+01      1.8962E+02   
   4.3560E+00      5.1080E+02      0.0000E+00      0.0000E+00      1.4798E+01      1.8520E+02   
   4.5700E+00      5.2150E+02      0.0000E+00      0.0000E+00      2.0322E+01      1.7968E+02   
   4.7515E+00      5.3057E+02      0.0000E+00      0.0000E+00      2.5961E+01      1.7404E+02   
   4.9816E+00      5.4208E+02      0.0000E+00      0.0000E+00      3.4391E+01      1.6561E+02   
   5.2484E+00      5.5542E+02      0.0000E+00      0.0000E+00      4.3009E+01      1.5699E+02   
   5.4622E+00      5.6611E+02      0.0000E+00      0.0000E+00      5.0775E+01      1.4923E+02   
   5.6422E+00      5.7511E+02      0.0000E+00      0.0000E+00      5.7898E+01      1.4210E+02   
   5.8696E+00      5.8648E+02      0.0000E+00      0.0000E+00      6.7710E+01      1.3229E+02   
   6.0618E+00      5.9609E+02      0.0000E+00      0.0000E+00      7.6755E+01      1.2324E+02   
   6.2291E+00      6.0445E+02      0.0000E+00      0.0000E+00      8.5225E+01      1.1478E+02   
   6.4239E+00      6.1419E+02      0.0000E+00      0.0000E+00      9.5825E+01      1.0418E+02   
   6.5946E+00      6.2273E+02      0.0000E+00      0.0000E+00      1.0580E+02      9.4205E+01   
   6.7828E+00      6.3214E+02      0.0000E+00      0.0000E+00      1.1756E+02      8.2444E+01   
   6.9497E+00      6.4048E+02      0.0000E+00      0.0000E+00      1.2868E+02      7.1317E+01   
   7.1284E+00      6.4942E+02      0.0000E+00      0.0000E+00      1.4135E+02      5.8647E+01   
   7.3139E+00      6.5869E+02      0.0000E+00      0.0000E+00      1.5536E+02      4.4640E+01   
   7.5027E+00      6.6813E+02      0.0000E+00      0.0000E+00      1.7053E+02      2.9469E+01   
   7.6721E+00      6.7661E+02      0.0000E+00      0.0000E+00      1.8496E+02      1.5039E+01   
   7.8446E+00      6.8523E+02      0.0000E+00      0.0000E+00      1.9892E+02      1.0775E+00   
   8.0128E+00      6.9364E+02      0.0000E+00      0.0000E+00      2.0001E+02     -7.9391E-03   
   8.1810E+00      7.0205E+02      0.0000E+00      0.0000E+00      2.0001E+02     -7.9391E-03   
   8.3493E+00      7.1046E+02      0.0000E+00      0.0000E+00      2.0001E+02     -7.9391E-03   
   8.5175E+00      7.1888E+02      0.0000E+00      0.0000E+00      2.0001E+02     -7.9391E-03   
   8.6858E+00      7.2300E+02      0.0000E+00      0.0000E+00      2.0001E+02     -7.9391E-03   
   8.8541E+00      7.2300E+02      0.0000E+00      0.0000E+00      2.0001E+02     -7.9391E-03   
   9.0223E+00      7.2300E+02      0.0000E+00      0.0000E+00      2.0001E+02     -7.9391E-03   
   9.1906E+00      7.2300E+02      0.0000E+00      0.0000E+00      2.0001E+02     -7.9391E-03   
   9.3589E+00      7.2300E+02      0.0000E+00      0.0000E+00      2.0001E+02     -7.9391E-03   
   9.5271E+00      7.2300E+02      0.0000E+00      0.0000E+00      2.0001E+02     -7.9391E-03   
   9.6954E+00      7.2300E+02      0.0000E+00      0.0000E+00      2.0001E+02     -7.9391E-03   
   9.8636E+00      7.2300E+02      0.0000E+00      0.0000E+00      2.0001E+02     -7.9391E-03   
   1.0032E+01      7.2300E+02      0.0000E+00      0.0000E+00      2.0001E+02     -7.9391E-03   
   1.0200E+01      7.2300E+02      0.0000E+00      0.0000E+00      2.0001E+02     -7.9391E-03   
   1.0368E+01      7.2300E+02      0.0000E+00      0.0000E+00      2.0001E+02     -7.9391E-03   
   1.0537E+01      7.2300E+02      0.0000E+00      0.0000E+00      2.0001E+02     -7.9391E-03   
   1.0705E+01      7.2300E+02      0.0000E+00      0.0000E+00      2.0001E+02     -7.9391E-03   
   1.0873E+01      7.2300E+02      0.0000E+00      0.0000E+00      2.0001E+02     -7.9391E-03   
   1.1042E+01      7.2300E+02      0.0000E+00      0.0000E+00      2.0001E+02     -7.9391E-03   
   1.1210E+01      7.2300E+02      0.0000E+00      0.0000E+00      2.0001E+02     -7.9391E-03   
   1.1378E+01      7.2300E+02      0.0000E+00      0.0000E+00      2.0001E+02     -7.9391E-03   
   1.1546E+01      7.2300E+02      0.0000E+00      0.0000E+00      2.0001E+02     -7.9391E-03   
   1.1715E+01      7.2300E+02      0.0000E+00      0.0000E+00      2.0001E+02     -7.9391E-03   
   1.1883E+01      7.2300E+02      0.0000E+00      0.0000E+00      2.0001E+02     -7.9391E-03   
   1.2051E+01      7.2300E+02      0.0000E+00      0.0000E+00      2.0001E+02     -7.9391E-03   
   1.2219E+01      7.2300E+02      0.0000E+00      0.0000E+00      2.0001E+02     -7.9391E-03   
   1.2388E+01      7.2300E+02      0.0000E+00      0.0000E+00      2.0001E+02     -7.9391E-03   
   1.2556E+01      7.2300E+02      0.0000E+00      0.0000E+00      2.0001E+02     -7.9391E-03   
   1.2724E+01      7.2300E+02      0.0000E+00      0.0000E+00      2.0001E+02     -7.9391E-03   
   1.2892E+01      7.2300E+02      0.0000E+00      0.0000E+00      2.0001E+02     -7.9391E-03   
   1.3061E+01      7.2300E+02      0.0000E+00      0.0000E+00      2.0001E+02     -7.9391E-03   
   1.3229E+01      7.2300E+02      0.0000E+00      0.0000E+00      2.0001E+02     -7.9391E-03   
   1.3397E+01      7.2300E+02      0.0000E+00      0.0000E+00      2.0001E+02     -7.9391E-03   
   1.3565E+01      7.2300E+02      0.0000E+00      0.0000E+00      2.0001E+02     -7.9391E-03   
   1.3734E+01      7.2300E+02      0.0000E+00      0.0000E+00      2.0001E+02     -7.9391E-03   
   1.3902E+01      7.2300E+02      0.0000E+00      0.0000E+00      2.0001E+02     -7.9391E-03   
   1.4070E+01      7.2300E+02      0.0000E+00      0.0000E+00      2.0001E+02     -7.9391E-03   
   1.4239E+01      7.2300E+02      0.0000E+00      0.0000E+00      2.0001E+02     -7.9391E-03   
   1.4407E+01      7.2300E+02      0.0000E+00      0.0000E+00      2.0001E+02     -7.9391E-03   
   1.4575E+01      7.2300E+02      0.0000E+00      0.0000E+00      2.0001E+02     -7.9391E-03   
   1.4743E+01      7.2300E+02      0.0000E+00      0.0000E+00      2.0001E+02     -7.9391E-03   
   1.4912E+01      7.2300E+02      0.0000E+00      0.0000E+00      2.0001E+02     -7.9391E-03   
   1.5080E+01      7.2300E+02      0.0000E+00      0.0000E+00      2.0001E+02     -7.9391E-03   
   1.5248E+01      7.2300E+02      0.0000E+00      0.0000E+00      2.0001E+02     -7.9391E-03   
   1.5416E+01      7.2300E+02      0.0000E+00      0.0000E+00      2.0001E+02     -7.9391E-03   
   1.5585E+01      7.2300E+02      0.0000E+00      0.0000E+00      2.0001E+02     -7.9391E-03   
   1.5753E+01      7.2300E+02      0.0000E+00      0.0000E+00      2.0001E+02     -7.9391E-03   
   1.5921E+01      7.2300E+02      0.0000E+00      0.0000E+00      2.0001E+02     -7.9391E-03   
   1.6089E+01      7.2300E+02      0.0000E+00      0.0000E+00      2.0001E+02     -7.9391E-03   
   1.6258E+01      7.2300E+02      0.0000E+00      0.0000E+00      2.0001E+02     -7.9391E-03   
   1.6426E+01      7.2300E+02      0.0000E+00      0.0000E+00      2.0001E+02     -7.9391E-03   
   1.6594E+01      7.2300E+02      0.0000E+00      0.0000E+00      2.0001E+02     -7.9391E-03   
   1.6763E+01      7.2300E+02      0.0000E+00      0.0000E+00      2.0001E+02     -7.9391E-03   
   1.6931E+01      7.2300E+02      0.0000E+00      0.0000E+00      2.0001E+02     -7.9391E-03   
   1.7099E+01      7.2300E+02      0.0000E+00      0.0000E+00      2.0001E+02     -7.9391E-03   
   1.7267E+01      7.2300E+02      0.0000E+00      0.0000E+00      2.0001E+02     -7.9391E-03   
   1.7436E+01      7.2300E+02      0.0000E+00      0.0000E+00      2.0001E+02     -7.9391E-03   
   1.7604E+01      7.2300E+02      0.0000E+00      0.0000E+00      2.0001E+02     -7.9391E-03   
   1.7772E+01      7.2300E+02      0.0000E+00      0.0000E+00      2.0001E+02     -7.9391E-03   
   1.7940E+01      7.2300E+02      0.0000E+00      0.0000E+00      2.0001E+02     -7.9391E-03   
   1.8109E+01      7.2300E+02      0.0000E+00      0.0000E+00      2.0001E+02     -7.9391E-03   
   1.8277E+01      7.2300E+02      0.0000E+00      0.0000E+00      2.0001E+02     -7.9391E-03   
   1.8445E+01      7.2300E+02      0.0000E+00      0.0000E+00      2.0001E+02     -7.9391E-03   
   1.8613E+01      7.2233E+02      0.0000E+00      0.0000E+00      2.0001E+02     -7.9391E-03   
   1.8782E+01      7.1391E+02      0.0000E+00      0.0000E+00      2.0001E+02     -7.9391E-03   
   1.8950E+01      7.0550E+02      0.0000E+00      0.0000E+00      2.0001E+02     -7.9391E-03   
   1.9118E+01      6.9709E+02      0.0000E+00      0.0000E+00      2.0001E+02     -7.9391E-03   
   1.9286E+01      6.8868E+02      0.0000E+00      0.0000E+00      2.0001E+02     -7.9391E-03   
   1.9456E+01      6.8019E+02      0.0000E+00      0.0000E+00      2.0001E+02     -7.9391E-03   
   1.9637E+01      6.7113E+02      0.0000E+00      0.0000E+00      2.0001E+02     -7.9391E-03   
   1.9816E+01      6.6218E+02      0.0000E+00      0.0000E+00      2.0001E+02     -7.9391E-03   
   1.9991E+01      6.5346E+02      0.0000E+00      0.0000E+00      2.0001E+02     -7.9391E-03   
   2.0186E+01      6.4369E+02      0.0000E+00      0.0000E+00      2.0001E+02     -7.9391E-03   
   2.0375E+01      6.3423E+02      0.0000E+00      0.0000E+00      2.0001E+02     -7.9391E-03   
   2.0553E+01      6.2533E+02      0.0000E+00      0.0000E+00      2.0001E+02     -7.9391E-03   
   2.0755E+01      6.1523E+02      0.0000E+00      0.0000E+00      2.0001E+02     -7.9391E-03   
   2.0940E+01      6.0599E+02      0.0000E+00      0.0000E+00      2.0001E+02     -7.9391E-03   
   2.1153E+01      5.9534E+02      6.1214E-03      9.9388E-01      1.9863E+02      1.3711E+00   
   2.1338E+01      5.8610E+02      8.3501E-03      9.9165E-01      1.9380E+02      6.1994E+00   
   2.1553E+01      5.7536E+02      8.8259E-03      9.9117E-01      1.8351E+02      1.6488E+01   
   2.1811E+01      5.6246E+02      7.9242E-03      9.9208E-01      1.6477E+02      3.5230E+01   
   2.2018E+01      5.5209E+02      6.7119E-03      9.9329E-01      1.4578E+02      5.4222E+01   
   2.2269E+01      5.3956E+02      5.2644E-03      9.9474E-01      1.2245E+02      7.7549E+01   
   2.2511E+01      5.2743E+02      4.1569E-03      9.9584E-01      1.0519E+02      9.4815E+01   
   2.2696E+01      5.1822E+02      3.4252E-03      9.9657E-01      9.3339E+01      1.0666E+02   
   2.2908E+01      5.0761E+02      2.6379E-03      9.9736E-01      8.1281E+01      1.1872E+02   
   2.3120E+01      4.9702E+02      1.9276E-03      9.9807E-01      7.0745E+01      1.2925E+02   
   2.3318E+01      4.8712E+02      1.3730E-03      9.9863E-01      6.1992E+01      1.3801E+02   
   2.3498E+01      4.7809E+02      9.7555E-04      9.9902E-01      5.4810E+01      1.4519E+02   
   2.3681E+01      4.6893E+02      6.7076E-04      9.9933E-01      4.8210E+01      1.5179E+02   
   2.3855E+01      4.6026E+02      4.5893E-04      9.9954E-01      4.2531E+01      1.5747E+02   
   2.4026E+01      4.5170E+02      3.0862E-04      9.9969E-01      3.7440E+01      1.6256E+02   
   2.4195E+01      4.4326E+02      2.0415E-04      9.9980E-01      3.2875E+01      1.6713E+02   
   2.4362E+01      4.3491E+02      1.3603E-04      9.9986E-01      2.8818E+01      1.7118E+02   
   2.4537E+01      4.2616E+02      8.4267E-05      9.9992E-01      2.4976E+01      1.7502E+02   
   2.4712E+01      4.1741E+02      5.0993E-05      9.9995E-01      2.1517E+01      1.7848E+02   
   2.4887E+01      4.0866E+02      3.0109E-05      9.9997E-01      1.8419E+01      1.8158E+02   
   2.5062E+01      3.9991E+02      1.7324E-05      9.9998E-01      1.5660E+01      1.8434E+02   
   2.5237E+01      3.9116E+02      9.6991E-06      9.9999E-01      1.3219E+01      1.8678E+02   
   2.5412E+01      3.8241E+02      5.2754E-06      9.9999E-01      1.1071E+01      1.8893E+02   
   2.5587E+01      3.7366E+02      2.7825E-06      1.0000E+00      9.1964E+00      1.9080E+02   
   2.5762E+01      3.6491E+02      1.4204E-06      1.0000E+00      7.5714E+00      1.9243E+02   
   2.5937E+01      3.5616E+02      7.0019E-07      1.0000E+00      6.1743E+00      1.9383E+02   
   2.6112E+01      3.4741E+02      3.3250E-07      1.0000E+00      4.9836E+00      1.9502E+02   
   2.6287E+01      3.3866E+02      1.5169E-07      1.0000E+00      3.9783E+00      1.9602E+02   
   2.6462E+01      3.2991E+02      6.6280E-08      1.0000E+00      3.1382E+00      1.9686E+02   
   2.6637E+01      3.2116E+02      2.7645E-08      1.0000E+00      2.4437E+00      1.9756E+02   
   2.6812E+01      3.1241E+02      1.0966E-08      1.0000E+00      1.8764E+00      1.9812E+02   
   2.6987E+01      3.0366E+02      4.1191E-09      1.0000E+00      1.4191E+00      1.9858E+02   
   2.7162E+01      2.9491E+02      1.4584E-09      1.0000E+00      1.0556E+00      1.9894E+02   
