Results for node = 1
    time [h]    temperature [K]    growth [/]    nucleation [/]   Css [wt.ppm]    Cp [wt.ppm]   
   0.0000E+00      2.9300E+02      0.0000E+00      0.0000E+00      4.8676E-02      1.9995E+02   
   3.3472E-02      2.9400E+02      0.0000E+00      0.0000E+00      4.8678E-02      1.9995E+02   
   6.6944E-02      2.9501E+02      0.0000E+00      0.0000E+00      4.8685E-02      1.9995E+02   
   1.0042E-01      2.9601E+02      0.0000E+00      0.0000E+00      4.8697E-02      1.9995E+02   
   1.3389E-01      2.9702E+02      0.0000E+00      0.0000E+00      4.8716E-02      1.9995E+02   
   1.6736E-01      2.9802E+02      0.0000E+00      0.0000E+00      4.8742E-02      1.9995E+02   
   2.0083E-01      2.9902E+02      0.0000E+00      0.0000E+00      4.8776E-02      1.9995E+02   
   2.3431E-01      3.0003E+02      0.0000E+00      0.0000E+00      4.8820E-02      1.9995E+02   
   2.6778E-01      3.0103E+02      0.0000E+00      0.0000E+00      4.8875E-02      1.9995E+02   
   3.0125E-01      3.0204E+02      0.0000E+00      0.0000E+00      4.8943E-02      1.9995E+02   
   3.3472E-01      3.0304E+02      0.0000E+00      0.0000E+00      4.9024E-02      1.9995E+02   
   3.6819E-01      3.0405E+02      0.0000E+00      0.0000E+00      4.9122E-02      1.9995E+02   
   4.0167E-01      3.0505E+02      0.0000E+00      0.0000E+00      4.9238E-02      1.9995E+02   
   4.3514E-01      3.0605E+02      0.0000E+00      0.0000E+00      4.9374E-02      1.9995E+02   
   4.6861E-01      3.0706E+02      0.0000E+00      0.0000E+00      4.9532E-02      1.9995E+02   
   4.8847E-01      3.0765E+02      0.0000E+00      0.0000E+00      4.9638E-02      1.9995E+02   
   5.2194E-01      3.0866E+02      0.0000E+00      0.0000E+00      4.9838E-02      1.9995E+02   
   5.5542E-01      3.0966E+02      0.0000E+00      0.0000E+00      5.0068E-02      1.9995E+02   
   5.8889E-01      3.1067E+02      0.0000E+00      0.0000E+00      5.0332E-02      1.9995E+02   
   6.2236E-01      3.1167E+02      0.0000E+00      0.0000E+00      5.0633E-02      1.9995E+02   
   6.5583E-01      3.1267E+02      0.0000E+00      0.0000E+00      5.0975E-02      1.9995E+02   
   6.8931E-01      3.1368E+02      0.0000E+00      0.0000E+00      5.1363E-02      1.9995E+02   
   7.2278E-01      3.1468E+02      0.0000E+00      0.0000E+00      5.1801E-02      1.9995E+02   
   7.5625E-01      3.1569E+02      0.0000E+00      0.0000E+00      5.2294E-02      1.9995E+02   
   7.8972E-01      3.1669E+02      0.0000E+00      0.0000E+00      5.2849E-02      1.9995E+02   
   8.2319E-01      3.1770E+02      0.0000E+00      0.0000E+00      5.3471E-02      1.9995E+02   
   8.5667E-01      3.1870E+02      0.0000E+00      0.0000E+00      5.4166E-02      1.9995E+02   
   8.9014E-01      3.1970E+02      0.0000E+00      0.0000E+00      5.4943E-02      1.9995E+02   
   9.2361E-01      3.2071E+02      0.0000E+00      0.0000E+00      5.5808E-02      1.9994E+02   
   9.5708E-01      3.2171E+02      0.0000E+00      0.0000E+00      5.6769E-02      1.9994E+02   
   9.9056E-01      3.2272E+02      0.0000E+00      0.0000E+00      5.7836E-02      1.9994E+02   
   1.0240E+00      3.2372E+02      0.0000E+00      0.0000E+00      5.9019E-02      1.9994E+02   
   1.0575E+00      3.2472E+02      0.0000E+00      0.0000E+00      6.0326E-02      1.9994E+02   
   1.0910E+00      3.2573E+02      0.0000E+00      0.0000E+00      6.1769E-02      1.9994E+02   
   1.1244E+00      3.2673E+02      0.0000E+00      0.0000E+00      6.3361E-02      1.9994E+02   
   1.1579E+00      3.2774E+02      0.0000E+00      0.0000E+00      6.5112E-02      1.9993E+02   
   1.1914E+00      3.2874E+02      0.0000E+00      0.0000E+00      6.7037E-02      1.9993E+02   
   1.2249E+00      3.2975E+02      0.0000E+00      0.0000E+00      6.9149E-02      1.9993E+02   
   1.2583E+00      3.3075E+02      0.0000E+00      0.0000E+00      7.1465E-02      1.9993E+02   
   1.2918E+00      3.3175E+02      0.0000E+00      0.0000E+00      7.3998E-02      1.9993E+02   
   1.3253E+00      3.3276E+02      0.0000E+00      0.0000E+00      7.6767E-02      1.9992E+02   
   1.3587E+00      3.3376E+02      0.0000E+00      0.0000E+00      7.9789E-02      1.9992E+02   
   1.3922E+00      3.3477E+02      0.0000E+00      0.0000E+00      8.3082E-02      1.9992E+02   
   1.4257E+00      3.3577E+02      0.0000E+00      0.0000E+00      8.6668E-02      1.9991E+02   
   1.4592E+00      3.3677E+02      0.0000E+00      0.0000E+00      9.0565E-02      1.9991E+02   
   1.4926E+00      3.3778E+02      0.0000E+00      0.0000E+00      9.4797E-02      1.9991E+02   
   1.5261E+00      3.3878E+02      0.0000E+00      0.0000E+00      9.9386E-02      1.9990E+02   
   1.5596E+00      3.3979E+02      0.0000E+00      0.0000E+00      1.0436E-01      1.9990E+02   
   1.5931E+00      3.4079E+02      0.0000E+00      0.0000E+00      1.0973E-01      1.9989E+02   
   1.6265E+00      3.4180E+02      0.0000E+00      0.0000E+00      1.1554E-01      1.9988E+02   
   1.6600E+00      3.4280E+02      0.0000E+00      0.0000E+00      1.2180E-01      1.9988E+02   
   1.6935E+00      3.4380E+02      0.0000E+00      0.0000E+00      1.2855E-01      1.9987E+02   
   1.7269E+00      3.4481E+02      0.0000E+00      0.0000E+00      1.3582E-01      1.9986E+02   
   1.7604E+00      3.4581E+02      0.0000E+00      0.0000E+00      1.4363E-01      1.9986E+02   
   1.7939E+00      3.4682E+02      0.0000E+00      0.0000E+00      1.5201E-01      1.9985E+02   
   1.8274E+00      3.4782E+02      0.0000E+00      0.0000E+00      1.6100E-01      1.9984E+02   
   1.8608E+00      3.4882E+02      0.0000E+00      0.0000E+00      1.7063E-01      1.9983E+02   
   1.8943E+00      3.4983E+02      0.0000E+00      0.0000E+00      1.8093E-01      1.9982E+02   
   1.9278E+00      3.5083E+02      0.0000E+00      0.0000E+00      1.9193E-01      1.9981E+02   
   1.9612E+00      3.5184E+02      0.0000E+00      0.0000E+00      2.0366E-01      1.9980E+02   
   1.9947E+00      3.5284E+02      0.0000E+00      0.0000E+00      2.1617E-01      1.9978E+02   
   2.0282E+00      3.5385E+02      0.0000E+00      0.0000E+00      2.2947E-01      1.9977E+02   
   2.0617E+00      3.5485E+02      0.0000E+00      0.0000E+00      2.4362E-01      1.9976E+02   
   2.0951E+00      3.5585E+02      0.0000E+00      0.0000E+00      2.5863E-01      1.9974E+02   
   2.1286E+00      3.5686E+02      0.0000E+00      0.0000E+00      2.7454E-01      1.9973E+02   
   2.1621E+00      3.5786E+02      0.0000E+00      0.0000E+00      2.9139E-01      1.9971E+02   
   2.1956E+00      3.5887E+02      0.0000E+00      0.0000E+00      3.0921E-01      1.9969E+02   
   2.2290E+00      3.5987E+02      0.0000E+00      0.0000E+00      3.2803E-01      1.9967E+02   
   2.2625E+00      3.6087E+02      0.0000E+00      0.0000E+00      3.4787E-01      1.9965E+02   
   2.2960E+00      3.6188E+02      0.0000E+00      0.0000E+00      3.6878E-01      1.9963E+02   
   2.3294E+00      3.6288E+02      0.0000E+00      0.0000E+00      3.9076E-01      1.9961E+02   
   2.3629E+00      3.6389E+02      0.0000E+00      0.0000E+00      4.1387E-01      1.9959E+02   
   2.3964E+00      3.6489E+02      0.0000E+00      0.0000E+00      4.3811E-01      1.9956E+02   
   2.4299E+00      3.6590E+02      0.0000E+00      0.0000E+00      4.6351E-01      1.9954E+02   
   2.4633E+00      3.6690E+02      0.0000E+00      0.0000E+00      4.9009E-01      1.9951E+02   
   2.4968E+00      3.6790E+02      0.0000E+00      0.0000E+00      5.1788E-01      1.9948E+02   
   2.5303E+00      3.6891E+02      0.0000E+00      0.0000E+00      5.4689E-01      1.9945E+02   
   2.5637E+00      3.6991E+02      0.0000E+00      0.0000E+00      5.7713E-01      1.9942E+02   
   2.5972E+00      3.7092E+02      0.0000E+00      0.0000E+00      6.0862E-01      1.9939E+02   
   2.6307E+00      3.7192E+02      0.0000E+00      0.0000E+00      6.4137E-01      1.9936E+02   
   2.6642E+00      3.7292E+02      0.0000E+00      0.0000E+00      6.7539E-01      1.9932E+02   
   2.6976E+00      3.7393E+02      0.0000E+00      0.0000E+00      7.1069E-01      1.9929E+02   
   2.7311E+00      3.7493E+02      0.0000E+00      0.0000E+00      7.4727E-01      1.9925E+02   
   2.7646E+00      3.7594E+02      0.0000E+00      0.0000E+00      7.8513E-01      1.9921E+02   
   2.7981E+00      3.7694E+02      0.0000E+00      0.0000E+00      8.2428E-01      1.9918E+02   
   2.8315E+00      3.7795E+02      0.0000E+00      0.0000E+00      8.6472E-01      1.9914E+02   
   2.8650E+00      3.7895E+02      0.0000E+00      0.0000E+00      9.0643E-01      1.9909E+02   
   2.8985E+00      3.7995E+02      0.0000E+00      0.0000E+00      9.4943E-01      1.9905E+02   
   2.9319E+00      3.8096E+02      0.0000E+00      0.0000E+00      9.9371E-01      1.9901E+02   
   2.9654E+00      3.8196E+02      0.0000E+00      0.0000E+00      1.0393E+00      1.9896E+02   
   2.9989E+00      3.8297E+02      0.0000E+00      0.0000E+00      1.0861E+00      1.9891E+02   
   3.0324E+00      3.8397E+02      0.0000E+00      0.0000E+00      1.1341E+00      1.9887E+02   
   3.0658E+00      3.8497E+02      0.0000E+00      0.0000E+00      1.1835E+00      1.9882E+02   
   3.0993E+00      3.8598E+02      0.0000E+00      0.0000E+00      1.2340E+00      1.9877E+02   
   3.1328E+00      3.8698E+02      0.0000E+00      0.0000E+00      1.2858E+00      1.9871E+02   
   3.1662E+00      3.8799E+02      0.0000E+00      0.0000E+00      1.3389E+00      1.9866E+02   
   3.1997E+00      3.8899E+02      0.0000E+00      0.0000E+00      1.3932E+00      1.9861E+02   
   3.2332E+00      3.9000E+02      0.0000E+00      0.0000E+00      1.4487E+00      1.9855E+02   
   3.2667E+00      3.9100E+02      0.0000E+00      0.0000E+00      1.5054E+00      1.9849E+02   
   3.3001E+00      3.9200E+02      0.0000E+00      0.0000E+00      1.5634E+00      1.9844E+02   
   3.3336E+00      3.9301E+02      0.0000E+00      0.0000E+00      1.6225E+00      1.9838E+02   
   3.3671E+00      3.9401E+02      0.0000E+00      0.0000E+00      1.6830E+00      1.9832E+02   
   3.4006E+00      3.9502E+02      0.0000E+00      0.0000E+00      1.7446E+00      1.9826E+02   
   3.4340E+00      3.9602E+02      0.0000E+00      0.0000E+00      1.8075E+00      1.9819E+02   
   3.4675E+00      3.9702E+02      0.0000E+00      0.0000E+00      1.8717E+00      1.9813E+02   
   3.5010E+00      3.9803E+02      0.0000E+00      0.0000E+00      1.9371E+00      1.9806E+02   
   3.5344E+00      3.9903E+02      0.0000E+00      0.0000E+00      2.0038E+00      1.9800E+02   
   3.5679E+00      4.0004E+02      0.0000E+00      0.0000E+00      2.0718E+00      1.9793E+02   
   3.6014E+00      4.0104E+02      0.0000E+00      0.0000E+00      2.1410E+00      1.9786E+02   
   3.6349E+00      4.0205E+02      0.0000E+00      0.0000E+00      2.2117E+00      1.9779E+02   
   3.6683E+00      4.0305E+02      0.0000E+00      0.0000E+00      2.2836E+00      1.9772E+02   
   3.7018E+00      4.0405E+02      0.0000E+00      0.0000E+00      2.3569E+00      1.9764E+02   
   3.7353E+00      4.0506E+02      0.0000E+00      0.0000E+00      2.4317E+00      1.9757E+02   
   3.7687E+00      4.0606E+02      0.0000E+00      0.0000E+00      2.5078E+00      1.9749E+02   
   3.8022E+00      4.0707E+02      0.0000E+00      0.0000E+00      2.5853E+00      1.9741E+02   
   3.8357E+00      4.0807E+02      0.0000E+00      0.0000E+00      2.6644E+00      1.9734E+02   
   3.8692E+00      4.0907E+02      0.0000E+00      0.0000E+00      2.7449E+00      1.9726E+02   
   3.9026E+00      4.1008E+02      0.0000E+00      0.0000E+00      2.8269E+00      1.9717E+02   
   3.9361E+00      4.1108E+02      0.0000E+00      0.0000E+00      2.9104E+00      1.9709E+02   
   3.9696E+00      4.1209E+02      0.0000E+00      0.0000E+00      2.9955E+00      1.9700E+02   
   4.0031E+00      4.1309E+02      0.0000E+00      0.0000E+00      3.0823E+00      1.9692E+02   
   4.0365E+00      4.1410E+02      0.0000E+00      0.0000E+00      3.1706E+00      1.9683E+02   
   4.0700E+00      4.1510E+02      0.0000E+00      0.0000E+00      3.2606E+00      1.9674E+02   
   4.1035E+00      4.1610E+02      0.0000E+00      0.0000E+00      3.3522E+00      1.9665E+02   
   4.1369E+00      4.1711E+02      0.0000E+00      0.0000E+00      3.4456E+00      1.9655E+02   
   4.1704E+00      4.1811E+02      0.0000E+00      0.0000E+00      3.5407E+00      1.9646E+02   
   4.2039E+00      4.1912E+02      0.0000E+00      0.0000E+00      3.6376E+00      1.9636E+02   
   4.2374E+00      4.2012E+02      0.0000E+00      0.0000E+00      3.7362E+00      1.9626E+02   
   4.2708E+00      4.2112E+02      0.0000E+00      0.0000E+00      3.8367E+00      1.9616E+02   
   4.3043E+00      4.2213E+02      0.0000E+00      0.0000E+00      3.9391E+00      1.9606E+02   
   4.3378E+00      4.2313E+02      0.0000E+00      0.0000E+00      4.0433E+00      1.9596E+02   
   4.3712E+00      4.2414E+02      0.0000E+00      0.0000E+00      4.1494E+00      1.9585E+02   
   4.4047E+00      4.2514E+02      0.0000E+00      0.0000E+00      4.2575E+00      1.9574E+02   
   4.4382E+00      4.2615E+02      0.0000E+00      0.0000E+00      4.3675E+00      1.9563E+02   
   4.4717E+00      4.2715E+02      0.0000E+00      0.0000E+00      4.4795E+00      1.9552E+02   
   4.5051E+00      4.2815E+02      0.0000E+00      0.0000E+00      4.5936E+00      1.9541E+02   
   4.5386E+00      4.2916E+02      0.0000E+00      0.0000E+00      4.7097E+00      1.9529E+02   
   4.5721E+00      4.3016E+02      0.0000E+00      0.0000E+00      4.8279E+00      1.9517E+02   
   4.6056E+00      4.3117E+02      0.0000E+00      0.0000E+00      4.9482E+00      1.9505E+02   
   4.6390E+00      4.3217E+02      0.0000E+00      0.0000E+00      5.0706E+00      1.9493E+02   
   4.6725E+00      4.3317E+02      0.0000E+00      0.0000E+00      5.1952E+00      1.9480E+02   
   4.7060E+00      4.3418E+02      0.0000E+00      0.0000E+00      5.3221E+00      1.9468E+02   
   4.7394E+00      4.3518E+02      0.0000E+00      0.0000E+00      5.4511E+00      1.9455E+02   
   4.7729E+00      4.3619E+02      0.0000E+00      0.0000E+00      5.5824E+00      1.9442E+02   
   4.8064E+00      4.3719E+02      0.0000E+00      0.0000E+00      5.7161E+00      1.9428E+02   
   4.8399E+00      4.3820E+02      0.0000E+00      0.0000E+00      5.8520E+00      1.9415E+02   
   4.8733E+00      4.3920E+02      0.0000E+00      0.0000E+00      5.9903E+00      1.9401E+02   
   4.9068E+00      4.4020E+02      0.0000E+00      0.0000E+00      6.1310E+00      1.9387E+02   
   4.9403E+00      4.4121E+02      0.0000E+00      0.0000E+00      6.2741E+00      1.9373E+02   
   4.9737E+00      4.4221E+02      0.0000E+00      0.0000E+00      6.4197E+00      1.9358E+02   
   5.0072E+00      4.4322E+02      0.0000E+00      0.0000E+00      6.5675E+00      1.9343E+02   
   5.0406E+00      4.4422E+02      0.0000E+00      0.0000E+00      6.7178E+00      1.9328E+02   
   5.0739E+00      4.4522E+02      0.0000E+00      0.0000E+00      6.8705E+00      1.9313E+02   
   5.1074E+00      4.4622E+02      0.0000E+00      0.0000E+00      7.0259E+00      1.9297E+02   
   5.1408E+00      4.4722E+02      0.0000E+00      0.0000E+00      7.1841E+00      1.9282E+02   
   5.1742E+00      4.4823E+02      0.0000E+00      0.0000E+00      7.3447E+00      1.9266E+02   
   5.2076E+00      4.4923E+02      0.0000E+00      0.0000E+00      7.5077E+00      1.9249E+02   
   5.2410E+00      4.5023E+02      0.0000E+00      0.0000E+00      7.6737E+00      1.9233E+02   
   5.2744E+00      4.5123E+02      0.0000E+00      0.0000E+00      7.8424E+00      1.9216E+02   
   5.3078E+00      4.5223E+02      0.0000E+00      0.0000E+00      8.0139E+00      1.9199E+02   
   5.3411E+00      4.5323E+02      0.0000E+00      0.0000E+00      8.1878E+00      1.9181E+02   
   5.3746E+00      4.5424E+02      0.0000E+00      0.0000E+00      8.3650E+00      1.9164E+02   
   5.4081E+00      4.5524E+02      0.0000E+00      0.0000E+00      8.5454E+00      1.9145E+02   
   5.4416E+00      4.5625E+02      0.0000E+00      0.0000E+00      8.7288E+00      1.9127E+02   
   5.4751E+00      4.5725E+02      0.0000E+00      0.0000E+00      8.9151E+00      1.9108E+02   
   5.5085E+00      4.5825E+02      0.0000E+00      0.0000E+00      9.1040E+00      1.9090E+02   
   5.5421E+00      4.5926E+02      0.0000E+00      0.0000E+00      9.2967E+00      1.9070E+02   
   5.5755E+00      4.6026E+02      0.0000E+00      0.0000E+00      9.4916E+00      1.9051E+02   
   5.6090E+00      4.6127E+02      0.0000E+00      0.0000E+00      9.6899E+00      1.9031E+02   
   5.6425E+00      4.6227E+02      0.0000E+00      0.0000E+00      9.8916E+00      1.9011E+02   
   5.6760E+00      4.6328E+02      0.0000E+00      0.0000E+00      1.0096E+01      1.8990E+02   
   5.7095E+00      4.6428E+02      0.0000E+00      0.0000E+00      1.0304E+01      1.8970E+02   
   5.7428E+00      4.6529E+02      0.0000E+00      0.0000E+00      1.0514E+01      1.8949E+02   
   5.7764E+00      4.6629E+02      0.0000E+00      0.0000E+00      1.0729E+01      1.8927E+02   
   5.8097E+00      4.6729E+02      0.0000E+00      0.0000E+00      1.0945E+01      1.8905E+02   
   5.8432E+00      4.6829E+02      0.0000E+00      0.0000E+00      1.1166E+01      1.8883E+02   
   5.8767E+00      4.6930E+02      0.0000E+00      0.0000E+00      1.1390E+01      1.8861E+02   
   5.9102E+00      4.7031E+02      0.0000E+00      0.0000E+00      1.1618E+01      1.8838E+02   
   5.9438E+00      4.7131E+02      0.0000E+00      0.0000E+00      1.1850E+01      1.8815E+02   
   5.9773E+00      4.7232E+02      0.0000E+00      0.0000E+00      1.2084E+01      1.8792E+02   
   6.0107E+00      4.7332E+02      0.0000E+00      0.0000E+00      1.2322E+01      1.8768E+02   
   6.0444E+00      4.7433E+02      0.0000E+00      0.0000E+00      1.2565E+01      1.8744E+02   
   6.0780E+00      4.7534E+02      0.0000E+00      0.0000E+00      1.2810E+01      1.8719E+02   
   6.1113E+00      4.7634E+02      0.0000E+00      0.0000E+00      1.3058E+01      1.8694E+02   
   6.1449E+00      4.7735E+02      0.0000E+00      0.0000E+00      1.3311E+01      1.8669E+02   
   6.1786E+00      4.7836E+02      0.0000E+00      0.0000E+00      1.3568E+01      1.8643E+02   
   6.2119E+00      4.7936E+02      0.0000E+00      0.0000E+00      1.3827E+01      1.8617E+02   
   6.2454E+00      4.8036E+02      0.0000E+00      0.0000E+00      1.4091E+01      1.8591E+02   
   6.2789E+00      4.8137E+02      0.0000E+00      0.0000E+00      1.4358E+01      1.8564E+02   
   6.3125E+00      4.8237E+02      0.0000E+00      0.0000E+00      1.4630E+01      1.8537E+02   
   6.3460E+00      4.8338E+02      0.0000E+00      0.0000E+00      1.4905E+01      1.8509E+02   
   6.3795E+00      4.8439E+02      0.0000E+00      0.0000E+00      1.5184E+01      1.8482E+02   
   6.4130E+00      4.8539E+02      0.0000E+00      0.0000E+00      1.5467E+01      1.8453E+02   
   6.4469E+00      4.8641E+02      0.0000E+00      0.0000E+00      1.5757E+01      1.8424E+02   
   6.4806E+00      4.8742E+02      0.0000E+00      0.0000E+00      1.6050E+01      1.8395E+02   
   6.5142E+00      4.8843E+02      0.0000E+00      0.0000E+00      1.6346E+01      1.8365E+02   
   6.5476E+00      4.8943E+02      0.0000E+00      0.0000E+00      1.6644E+01      1.8336E+02   
   6.5813E+00      4.9044E+02      0.0000E+00      0.0000E+00      1.6950E+01      1.8305E+02   
   6.6148E+00      4.9144E+02      0.0000E+00      0.0000E+00      1.7256E+01      1.8274E+02   
   6.6485E+00      4.9246E+02      0.0000E+00      0.0000E+00      1.7571E+01      1.8243E+02   
   6.6819E+00      4.9346E+02      0.0000E+00      0.0000E+00      1.7885E+01      1.8211E+02   
   6.7156E+00      4.9447E+02      0.0000E+00      0.0000E+00      1.8207E+01      1.8179E+02   
   6.7495E+00      4.9548E+02      0.0000E+00      0.0000E+00      1.8536E+01      1.8146E+02   
   6.7829E+00      4.9649E+02      0.0000E+00      0.0000E+00      1.8864E+01      1.8114E+02   
