Results for node = 1
    time [s]    temperature [K]    growth [/]    nucleation [/]   Css [wt.ppm]    Cp [wt.ppm]   
   0.0000E+00      6.9678E+02      0.0000E+00      0.0000E+00      2.0500E+02      0.0000E+00   
   4.1873E+01      6.8980E+02      0.0000E+00      0.0000E+00      2.0500E+02      0.0000E+00   
   1.2250E+02      6.7636E+02      0.0000E+00      0.0000E+00      2.0500E+02      0.0000E+00   
   2.0325E+02      6.6290E+02      0.0000E+00      0.0000E+00      2.0500E+02      0.0000E+00   
   2.8455E+02      6.4935E+02      0.0000E+00      0.0000E+00      2.0500E+02      0.0000E+00   
   3.6652E+02      6.3569E+02      0.0000E+00      0.0000E+00      2.0500E+02      0.0000E+00   
   4.4707E+02      6.2227E+02      0.0000E+00      0.0000E+00      2.0500E+02      0.0000E+00   
   5.2829E+02      6.0873E+02      0.0000E+00      0.0000E+00      2.0500E+02      0.0000E+00   
   6.1116E+02      5.9492E+02      2.9638E-02      9.7036E-01      1.9707E+02      7.9262E+00   
   6.9343E+02      5.8121E+02      4.4864E-02      9.5514E-01      1.7552E+02      2.9476E+01   
   7.7605E+02      5.6800E+02      5.9433E-02      9.4057E-01      1.5245E+02      5.2548E+01   
   8.5756E+02      5.6800E+02      1.0000E+00      0.0000E+00      1.4686E+02      5.8144E+01   
   9.3907E+02      5.6800E+02      1.0000E+00      0.0000E+00      1.4567E+02      5.9325E+01   
   1.0206E+03      5.6800E+02      1.0000E+00      0.0000E+00      1.4449E+02      6.0509E+01   
   1.1021E+03      5.6800E+02      1.0000E+00      0.0000E+00      1.4331E+02      6.1694E+01   
   1.1836E+03      5.6800E+02      1.0000E+00      0.0000E+00      1.4212E+02      6.2882E+01   
   1.2651E+03      5.6800E+02      1.0000E+00      0.0000E+00      1.4093E+02      6.4071E+01   
   1.3466E+03      5.6800E+02      1.0000E+00      0.0000E+00      1.3974E+02      6.5260E+01   
   1.4281E+03      5.6800E+02      1.0000E+00      0.0000E+00      1.3855E+02      6.6451E+01   
   1.5096E+03      5.6800E+02      1.0000E+00      0.0000E+00      1.3736E+02      6.7641E+01   
   1.5911E+03      5.6800E+02      1.0000E+00      0.0000E+00      1.3617E+02      6.8831E+01   
   1.6726E+03      5.6800E+02      1.0000E+00      0.0000E+00      1.3498E+02      7.0020E+01   
   1.7541E+03      5.6800E+02      1.0000E+00      0.0000E+00      1.3379E+02      7.1208E+01   
   1.8357E+03      5.6800E+02      1.0000E+00      0.0000E+00      1.3261E+02      7.2395E+01   
   1.9172E+03      5.6800E+02      1.0000E+00      0.0000E+00      1.3142E+02      7.3579E+01   
   1.9987E+03      5.6800E+02      1.0000E+00      0.0000E+00      1.3024E+02      7.4762E+01   
   2.0802E+03      5.6800E+02      1.0000E+00      0.0000E+00      1.2906E+02      7.5941E+01   
   2.1617E+03      5.6800E+02      1.0000E+00      0.0000E+00      1.2788E+02      7.7117E+01   
   2.2432E+03      5.6800E+02      1.0000E+00      0.0000E+00      1.2671E+02      7.8290E+01   
   2.3247E+03      5.6800E+02      1.0000E+00      0.0000E+00      1.2554E+02      7.9458E+01   
   2.4062E+03      5.6800E+02      1.0000E+00      0.0000E+00      1.2438E+02      8.0622E+01   
   2.4877E+03      5.6800E+02      1.0000E+00      0.0000E+00      1.2322E+02      8.1782E+01   
   2.5692E+03      5.6800E+02      1.0000E+00      0.0000E+00      1.2206E+02      8.2936E+01   
   2.6507E+03      5.6800E+02      1.0000E+00      0.0000E+00      1.2091E+02      8.4085E+01   
   2.7322E+03      5.6800E+02      1.0000E+00      0.0000E+00      1.1977E+02      8.5229E+01   
   2.8137E+03      5.6800E+02      1.0000E+00      0.0000E+00      1.1863E+02      8.6366E+01   
   2.8952E+03      5.6800E+02      1.0000E+00      0.0000E+00      1.1750E+02      8.7496E+01   
   2.9768E+03      5.6800E+02      1.0000E+00      0.0000E+00      1.1638E+02      8.8620E+01   
   3.0583E+03      5.6800E+02      1.0000E+00      0.0000E+00      1.1526E+02      8.9737E+01   
   3.1398E+03      5.6800E+02      1.0000E+00      0.0000E+00      1.1415E+02      9.0846E+01   
   3.2213E+03      5.6800E+02      1.0000E+00      0.0000E+00      1.1305E+02      9.1947E+01   
   3.3028E+03      5.6800E+02      1.0000E+00      0.0000E+00      1.1196E+02      9.3041E+01   
   3.3843E+03      5.6800E+02      1.0000E+00      0.0000E+00      1.1087E+02      9.4125E+01   
   3.4658E+03      5.6800E+02      1.0000E+00      0.0000E+00      1.0980E+02      9.5202E+01   
   3.5473E+03      5.6800E+02      1.0000E+00      0.0000E+00      1.0873E+02      9.6269E+01   
   3.6288E+03      5.6800E+02      1.0000E+00      0.0000E+00      1.0767E+02      9.7327E+01   
   3.7103E+03      5.6800E+02      1.0000E+00      0.0000E+00      1.0662E+02      9.8376E+01   
   3.7918E+03      5.6800E+02      1.0000E+00      0.0000E+00      1.0558E+02      9.9415E+01   
   3.8733E+03      5.6800E+02      1.0000E+00      0.0000E+00      1.0456E+02      1.0044E+02   
   3.9548E+03      5.6800E+02      1.0000E+00      0.0000E+00      1.0354E+02      1.0146E+02   
   4.0364E+03      5.6800E+02      1.0000E+00      0.0000E+00      1.0253E+02      1.0247E+02   
   4.1179E+03      5.6800E+02      1.0000E+00      0.0000E+00      1.0153E+02      1.0347E+02   
   4.1994E+03      5.6800E+02      1.0000E+00      0.0000E+00      1.0054E+02      1.0446E+02   
   4.2809E+03      5.6800E+02      1.0000E+00      0.0000E+00      9.9567E+01      1.0543E+02   
   4.3624E+03      5.6800E+02      1.0000E+00      0.0000E+00      9.8602E+01      1.0640E+02   
   4.4439E+03      5.6800E+02      1.0000E+00      0.0000E+00      9.7649E+01      1.0735E+02   
   4.5254E+03      5.6800E+02      1.0000E+00      0.0000E+00      9.6706E+01      1.0829E+02   
   4.6069E+03      5.6800E+02      1.0000E+00      0.0000E+00      9.5776E+01      1.0922E+02   
   4.6884E+03      5.6800E+02      1.0000E+00      0.0000E+00      9.4858E+01      1.1014E+02   
   4.7699E+03      5.6800E+02      1.0000E+00      0.0000E+00      9.3951E+01      1.1105E+02   
   4.8514E+03      5.6800E+02      1.0000E+00      0.0000E+00      9.3056E+01      1.1194E+02   
   4.9329E+03      5.6800E+02      1.0000E+00      0.0000E+00      9.2174E+01      1.1283E+02   
   5.0144E+03      5.6800E+02      1.0000E+00      0.0000E+00      9.1304E+01      1.1370E+02   
   5.0960E+03      5.6800E+02      1.0000E+00      0.0000E+00      9.0446E+01      1.1455E+02   
   5.1775E+03      5.6800E+02      1.0000E+00      0.0000E+00      8.9601E+01      1.1540E+02   
   5.2590E+03      5.6800E+02      1.0000E+00      0.0000E+00      8.8769E+01      1.1623E+02   
   5.3405E+03      5.6800E+02      1.0000E+00      0.0000E+00      8.7949E+01      1.1705E+02   
   5.4220E+03      5.6800E+02      1.0000E+00      0.0000E+00      8.7142E+01      1.1786E+02   
   5.5035E+03      5.6800E+02      1.0000E+00      0.0000E+00      8.6347E+01      1.1865E+02   
   5.5850E+03      5.6800E+02      1.0000E+00      0.0000E+00      8.5566E+01      1.1943E+02   
   5.6665E+03      5.6800E+02      1.0000E+00      0.0000E+00      8.4797E+01      1.2020E+02   
   5.7480E+03      5.6800E+02      1.0000E+00      0.0000E+00      8.4041E+01      1.2096E+02   
   5.8295E+03      5.6800E+02      1.0000E+00      0.0000E+00      8.3298E+01      1.2170E+02   
   5.9110E+03      5.6800E+02      1.0000E+00      0.0000E+00      8.2568E+01      1.2243E+02   
   5.9925E+03      5.6800E+02      1.0000E+00      0.0000E+00      8.1851E+01      1.2315E+02   
   6.0740E+03      5.6800E+02      1.0000E+00      0.0000E+00      8.1146E+01      1.2385E+02   
   6.1556E+03      5.6800E+02      1.0000E+00      0.0000E+00      8.0455E+01      1.2455E+02   
   6.2371E+03      5.6800E+02      1.0000E+00      0.0000E+00      7.9776E+01      1.2522E+02   
   6.3186E+03      5.6800E+02      1.0000E+00      0.0000E+00      7.9110E+01      1.2589E+02   
   6.4001E+03      5.6800E+02      1.0000E+00      0.0000E+00      7.8457E+01      1.2654E+02   
   6.4816E+03      5.6800E+02      1.0000E+00      0.0000E+00      7.7817E+01      1.2718E+02   
   6.5631E+03      5.6800E+02      1.0000E+00      0.0000E+00      7.7190E+01      1.2781E+02   
   6.6446E+03      5.6800E+02      1.0000E+00      0.0000E+00      7.6575E+01      1.2843E+02   
   6.7261E+03      5.6800E+02      1.0000E+00      0.0000E+00      7.5972E+01      1.2903E+02   
   6.8076E+03      5.6800E+02      1.0000E+00      0.0000E+00      7.5382E+01      1.2962E+02   
   6.8891E+03      5.6800E+02      1.0000E+00      0.0000E+00      7.4805E+01      1.3020E+02   
   6.9706E+03      5.6800E+02      1.0000E+00      0.0000E+00      7.4240E+01      1.3076E+02   
   7.0521E+03      5.6800E+02      1.0000E+00      0.0000E+00      7.3687E+01      1.3131E+02   
   7.1336E+03      5.6800E+02      1.0000E+00      0.0000E+00      7.3146E+01      1.3185E+02   
   7.2152E+03      5.6800E+02      1.0000E+00      0.0000E+00      7.2617E+01      1.3238E+02   
   7.2967E+03      5.6800E+02      1.0000E+00      0.0000E+00      7.2100E+01      1.3290E+02   
   7.3782E+03      5.6800E+02      1.0000E+00      0.0000E+00      7.1595E+01      1.3340E+02   
   7.4597E+03      5.6800E+02      1.0000E+00      0.0000E+00      7.1102E+01      1.3390E+02   
   7.5412E+03      5.6800E+02      1.0000E+00      0.0000E+00      7.0620E+01      1.3438E+02   
   7.6227E+03      5.6800E+02      1.0000E+00      0.0000E+00      7.0150E+01      1.3485E+02   
   7.7042E+03      5.6800E+02      1.0000E+00      0.0000E+00      6.9691E+01      1.3531E+02   
   7.7857E+03      5.6800E+02      1.0000E+00      0.0000E+00      6.9244E+01      1.3576E+02   
   7.8672E+03      5.6800E+02      1.0000E+00      0.0000E+00      6.8807E+01      1.3619E+02   
   7.9487E+03      5.6800E+02      1.0000E+00      0.0000E+00      6.8382E+01      1.3662E+02   
   8.0302E+03      5.6800E+02      1.0000E+00      0.0000E+00      6.7967E+01      1.3703E+02   
   8.1117E+03      5.6800E+02      1.0000E+00      0.0000E+00      6.7563E+01      1.3744E+02   
   8.1932E+03      5.6800E+02      1.0000E+00      0.0000E+00      6.7169E+01      1.3783E+02   
   8.2747E+03      5.6800E+02      1.0000E+00      0.0000E+00      6.6786E+01      1.3821E+02   
   8.3563E+03      5.6800E+02      1.0000E+00      0.0000E+00      6.6412E+01      1.3859E+02   
   8.4378E+03      5.6800E+02      1.0000E+00      0.0000E+00      6.6049E+01      1.3895E+02   
   8.5193E+03      5.6800E+02      1.0000E+00      0.0000E+00      6.5696E+01      1.3930E+02   
   8.6008E+03      5.6800E+02      1.0000E+00      0.0000E+00      6.5353E+01      1.3965E+02   
   8.6823E+03      5.6800E+02      1.0000E+00      0.0000E+00      6.5019E+01      1.3998E+02   
   8.7638E+03      5.6800E+02      1.0000E+00      0.0000E+00      6.4694E+01      1.4031E+02   
   8.8453E+03      5.6800E+02      1.0000E+00      0.0000E+00      6.4379E+01      1.4062E+02   
   8.9268E+03      5.6800E+02      1.0000E+00      0.0000E+00      6.4073E+01      1.4093E+02   
   9.0083E+03      5.6800E+02      1.0000E+00      0.0000E+00      6.3775E+01      1.4122E+02   
   9.0898E+03      5.6800E+02      1.0000E+00      0.0000E+00      6.3487E+01      1.4151E+02   
   9.1713E+03      5.6800E+02      1.0000E+00      0.0000E+00      6.3207E+01      1.4179E+02   
   9.2528E+03      5.6800E+02      1.0000E+00      0.0000E+00      6.2935E+01      1.4206E+02   
   9.3343E+03      5.6800E+02      1.0000E+00      0.0000E+00      6.2672E+01      1.4233E+02   
   9.4159E+03      5.6800E+02      1.0000E+00      0.0000E+00      6.2417E+01      1.4258E+02   
   9.4974E+03      5.6800E+02      1.0000E+00      0.0000E+00      6.2169E+01      1.4283E+02   
   9.5789E+03      5.6800E+02      1.0000E+00      0.0000E+00      6.1930E+01      1.4307E+02   
   9.6604E+03      5.6800E+02      1.0000E+00      0.0000E+00      6.1698E+01      1.4330E+02   
   9.7419E+03      5.6800E+02      1.0000E+00      0.0000E+00      6.1473E+01      1.4353E+02   
   9.8234E+03      5.6800E+02      1.0000E+00      0.0000E+00      6.1256E+01      1.4374E+02   
   9.9049E+03      5.6800E+02      1.0000E+00      0.0000E+00      6.1045E+01      1.4395E+02   
   9.9864E+03      5.6800E+02      1.0000E+00      0.0000E+00      6.0842E+01      1.4416E+02   
   1.0068E+04      5.6800E+02      1.0000E+00      0.0000E+00      6.0645E+01      1.4435E+02   
   1.0149E+04      5.6800E+02      1.0000E+00      0.0000E+00      6.0455E+01      1.4454E+02   
   1.0231E+04      5.6800E+02      1.0000E+00      0.0000E+00      6.0271E+01      1.4473E+02   
   1.0312E+04      5.6800E+02      1.0000E+00      0.0000E+00      6.0094E+01      1.4491E+02   
   1.0394E+04      5.6800E+02      1.0000E+00      0.0000E+00      5.9923E+01      1.4508E+02   
   1.0475E+04      5.6800E+02      1.0000E+00      0.0000E+00      5.9757E+01      1.4524E+02   
   1.0557E+04      5.6800E+02      1.0000E+00      0.0000E+00      5.9598E+01      1.4540E+02   
   1.0638E+04      5.6800E+02      1.0000E+00      0.0000E+00      5.9444E+01      1.4556E+02   
   1.0720E+04      5.6800E+02      1.0000E+00      0.0000E+00      5.9295E+01      1.4570E+02   
   1.0801E+04      5.6800E+02      1.0000E+00      0.0000E+00      5.9152E+01      1.4585E+02   
   1.0883E+04      5.6800E+02      1.0000E+00      0.0000E+00      5.9014E+01      1.4599E+02   
   1.0964E+04      5.6800E+02      1.0000E+00      0.0000E+00      5.8882E+01      1.4612E+02   
   1.1046E+04      5.6800E+02      1.0000E+00      0.0000E+00      5.8754E+01      1.4625E+02   
   1.1128E+04      5.6800E+02      1.0000E+00      0.0000E+00      5.8631E+01      1.4637E+02   
   1.1209E+04      5.6800E+02      1.0000E+00      0.0000E+00      5.8512E+01      1.4649E+02   
   1.1291E+04      5.6800E+02      1.0000E+00      0.0000E+00      5.8398E+01      1.4660E+02   
   1.1372E+04      5.6800E+02      1.0000E+00      0.0000E+00      5.8288E+01      1.4671E+02   
   1.1454E+04      5.6800E+02      1.0000E+00      0.0000E+00      5.8183E+01      1.4682E+02   
   1.1535E+04      5.6800E+02      1.0000E+00      0.0000E+00      5.8082E+01      1.4692E+02   
   1.1617E+04      5.6800E+02      1.0000E+00      0.0000E+00      5.7984E+01      1.4702E+02   
   1.1698E+04      5.6800E+02      1.0000E+00      0.0000E+00      5.7891E+01      1.4711E+02   
   1.1780E+04      5.6800E+02      1.0000E+00      0.0000E+00      5.7801E+01      1.4720E+02   
   1.1861E+04      5.6800E+02      1.0000E+00      0.0000E+00      5.7715E+01      1.4729E+02   
   1.1943E+04      5.6800E+02      1.0000E+00      0.0000E+00      5.7632E+01      1.4737E+02   
   1.2024E+04      5.6800E+02      1.0000E+00      0.0000E+00      5.7553E+01      1.4745E+02   
   1.2106E+04      5.6800E+02      1.0000E+00      0.0000E+00      5.7477E+01      1.4752E+02   
   1.2187E+04      5.6800E+02      1.0000E+00      0.0000E+00      5.7404E+01      1.4760E+02   
