      Position [m]           Temperature [K]            Css [wt.ppm]             Cp [wt.ppm]       
-5.421010862427522170e-20 5.338999999999999773e+02 2.213748688684276544e+01 2.657269939879691947e+02
4.762499999999998939e-04 5.352999999999999545e+02 2.184170499570855739e+01 2.177923819599717774e+02
9.524999999999998962e-04 5.366999999999999318e+02 2.160882026310548909e+01 1.784464173585458013e+02
1.428749999999999899e-03 5.381000000000000227e+02 2.164454138200123978e+01 1.458932248431942185e+02
1.904999999999999576e-03 5.395000000000000000e+02 2.170075491329209072e+01 1.190377112320386175e+02
2.381249999999999686e-03 5.408999999999999773e+02 2.183860573845951691e+01 9.666048681001031184e+01
2.857499999999999363e-03 5.423500000000000227e+02 2.202276954578824686e+01 7.581643873187678651e+01
3.333749999999999474e-03 5.437999999999999545e+02 2.225424438777206859e+01 5.754216247313743793e+01
3.809999999999999151e-03 5.452500000000000000e+02 2.256020647602208840e+01 4.103654606505700286e+01
4.286249999999999262e-03 5.467000000000000455e+02 2.287710544036577787e+01 2.572599318743415253e+01
4.762499999999999373e-03 5.481499999999999773e+02 2.321442040689480635e+01 1.109990192181199653e+01
5.238749999999999483e-03 5.496000000000000227e+02 2.357411686134246409e+01 0.000000000000000000e+00
5.714999999999999594e-03 5.516200000000000045e+02 2.373332659777101128e+01 0.000000000000000000e+00
6.191249999999998838e-03 5.536399999999999864e+02 2.386577116024616885e+01 0.000000000000000000e+00
6.667499999999998948e-03 5.556600000000000819e+02 2.397325569027044878e+01 0.000000000000000000e+00
7.143749999999999059e-03 5.576800000000000637e+02 2.405747375224635576e+01 0.000000000000000000e+00
7.619999999999999170e-03 5.597000000000000455e+02 2.412001493812611130e+01 0.000000000000000000e+00
8.096249999999999281e-03 5.624833333333333485e+02 2.393192055076456271e+01 0.000000000000000000e+00
8.572500000000000259e-03 5.652666666666667652e+02 2.372825823141801038e+01 0.000000000000000000e+00
9.048749999999999502e-03 5.680500000000000682e+02 2.351097781489333016e+01 0.000000000000000000e+00
9.525000000000000480e-03 5.708333333333333712e+02 2.328184943558617803e+01 0.000000000000000000e+00
1.000124999999999972e-02 5.736166666666666742e+02 2.304247941647978237e+01 0.000000000000000000e+00
1.047749999999999897e-02 5.763999999999999773e+02 2.279432474087712990e+01 0.000000000000000000e+00
1.095374999999999995e-02 5.791833333333333940e+02 2.253870623499002690e+01 0.000000000000000000e+00
1.142999999999999919e-02 5.819666666666666970e+02 2.227682057814153893e+01 0.000000000000000000e+00
1.190625000000000017e-02 5.847500000000000000e+02 2.200975124678678441e+01 0.000000000000000000e+00
1.238249999999999941e-02 5.875333333333333030e+02 2.173847848886662959e+01 0.000000000000000000e+00
1.285874999999999865e-02 5.903166666666667197e+02 2.146388841615823040e+01 0.000000000000000000e+00
1.333499999999999963e-02 5.931000000000000227e+02 2.118678129423529555e+01 0.000000000000000000e+00
1.381124999999999887e-02 5.965000000000000000e+02 2.076224725926798342e+01 0.000000000000000000e+00
1.428749999999999985e-02 5.998999999999999773e+02 2.034348884670450985e+01 0.000000000000000000e+00
1.476374999999999910e-02 6.032999999999999545e+02 1.993095307403523364e+01 0.000000000000000000e+00
1.523999999999999834e-02 6.067000000000000455e+02 1.952500824388402023e+01 0.000000000000000000e+00
1.571624999999999758e-02 6.101000000000000227e+02 1.912595330545467576e+01 0.000000000000000000e+00
1.619249999999999856e-02 6.135000000000000000e+02 1.873402617149623239e+01 0.000000000000000000e+00
1.666874999999999607e-02 6.168999999999999773e+02 1.834941110759490357e+01 0.000000000000000000e+00
1.714499999999999705e-02 6.202999999999999545e+02 1.797224529724973507e+01 0.000000000000000000e+00
1.762124999999999803e-02 6.237000000000000455e+02 1.760262467440575307e+01 0.000000000000000000e+00
1.809749999999999553e-02 6.270999999999999091e+02 1.724060910471127883e+01 0.000000000000000000e+00
1.857374999999999651e-02 6.305000000000000000e+02 1.688622698757245644e+01 0.000000000000000000e+00
1.904999999999999749e-02 6.338999999999999773e+02 1.653947934295336708e+01 0.000000000000000000e+00
1.952624999999999847e-02 6.347076923076922412e+02 1.661871640738358025e+01 0.000000000000000000e+00
2.000249999999999598e-02 6.355153846153846189e+02 1.669538071716579353e+01 0.000000000000000000e+00
2.047874999999999696e-02 6.363230769230768828e+02 1.676952296795187891e+01 0.000000000000000000e+00
2.095499999999999793e-02 6.371307692307692605e+02 1.684119289783936324e+01 0.000000000000000000e+00
2.143124999999999544e-02 6.379384615384615245e+02 1.691043930560000064e+01 0.000000000000000000e+00
2.190749999999999642e-02 6.387461538461537884e+02 1.697731006858501601e+01 0.000000000000000000e+00
2.238374999999999740e-02 6.395538461538461661e+02 1.704185216031026684e+01 0.000000000000000000e+00
2.285999999999999491e-02 6.403615384615384301e+02 1.710411166772386693e+01 0.000000000000000000e+00
2.333624999999999589e-02 6.411692307692306940e+02 1.716413380816123180e+01 0.000000000000000000e+00
2.381249999999999686e-02 6.419769230769230717e+02 1.722196294598983357e+01 0.000000000000000000e+00
2.428874999999999784e-02 6.427846153846153356e+02 1.727764260894781856e+01 0.000000000000000000e+00
2.476499999999999535e-02 6.435923076923077133e+02 1.733121550417986612e+01 0.000000000000000000e+00
2.524124999999999633e-02 6.443999999999999773e+02 1.738272353397502457e+01 0.000000000000000000e+00
2.571749999999999731e-02 6.419785714285713993e+02 1.796222236954064400e+01 0.000000000000000000e+00
2.619374999999999482e-02 6.395571428571428214e+02 1.856395938404478585e+01 0.000000000000000000e+00
2.666999999999999579e-02 6.371357142857142435e+02 1.918892225527988415e+01 0.000000000000000000e+00
2.714624999999999677e-02 6.347142857142856656e+02 1.983814845481385447e+01 0.000000000000000000e+00
2.762249999999999428e-02 6.322928571428572013e+02 2.051272804750296075e+01 0.000000000000000000e+00
2.809874999999999526e-02 6.298714285714286234e+02 2.121380666378399127e+01 0.000000000000000000e+00
2.857499999999999624e-02 6.274500000000000455e+02 2.194258865627663724e+01 0.000000000000000000e+00
2.905124999999999721e-02 6.250285714285714675e+02 2.270034045304560877e+01 0.000000000000000000e+00
2.952749999999999472e-02 6.226071428571428896e+02 2.348839412075050603e+01 0.000000000000000000e+00
3.000374999999999570e-02 6.201857142857143117e+02 2.430815115185672326e+01 0.000000000000000000e+00
3.047999999999999668e-02 6.177642857142857338e+02 2.516108649109446560e+01 0.000000000000000000e+00
3.095624999999999419e-02 6.153428571428571558e+02 2.604875281744307003e+01 0.000000000000000000e+00
3.143250000000000210e-02 6.129214285714285779e+02 2.697278509908801070e+01 0.000000000000000000e+00
3.190874999999999961e-02 6.105000000000000000e+02 2.793490544005487308e+01 0.000000000000000000e+00
3.238499999999999712e-02 6.052000000000000455e+02 2.978288782501743981e+01 0.000000000000000000e+00
3.286125000000000157e-02 5.998999999999999773e+02 3.178663597350335124e+01 0.000000000000000000e+00
3.333749999999999908e-02 5.946000000000000227e+02 3.396195546818756128e+01 0.000000000000000000e+00
3.381374999999999659e-02 5.893000000000000682e+02 3.632651897454260137e+01 0.000000000000000000e+00
3.429000000000000103e-02 5.840000000000000000e+02 3.890011728950319991e+01 0.000000000000000000e+00
3.476624999999999854e-02 5.787000000000000455e+02 4.170494817726175540e+01 1.516525218804343638e+02
3.524249999999999605e-02 5.763285714285715358e+02 4.331831542839908167e+01 3.436395354106409172e+02
3.571875000000000050e-02 5.739571428571429124e+02 4.498146862491496023e+01 5.559426624063731879e+02
3.619499999999999801e-02 5.715857142857142890e+02 4.668891139871929852e+01 7.933301029000592735e+02
3.667124999999999552e-02 5.692142857142857792e+02 4.843066525538549172e+01 1.062347066400407357e+03
3.714749999999999996e-02 5.668428571428571558e+02 5.019000237166114431e+01 1.372391682411444435e+03
3.762374999999999747e-02 5.644714285714285325e+02 5.194003248223252456e+01 1.737903280628516768e+03
3.809999999999999498e-02 5.621000000000000227e+02 5.363827427127964853e+01 2.183650030551845703e+03
